sample_id,accuracy,window_size
0,57.415828173374614,50.0
1,56.6515092879257,50.0
2,61.36803405572755,50.0
3,60.603715170278626,50.0
4,59.28792569659443,50.0
5,59.462074303405586,50.0
6,58.51876934984519,50.0
7,56.845007739938076,50.0
8,58.86706656346749,50.0
9,57.81250000000001,50.0
10,59.84907120743035,50.0
11,58.36397058823529,50.0
12,58.779992260061924,50.0
13,55.68401702786379,50.0
14,57.08688080495356,50.0
15,57.26586687306502,50.0
16,55.58243034055727,50.0
17,54.47465170278639,50.0
18,57.7641253869969,50.0
19,58.45104489164087,50.0
20,58.562306501547994,50.0
21,57.68188854489164,50.0
22,55.78076625386997,50.0
23,57.94311145510836,50.0
24,53.429760061919495,50.0
25,58.707430340557266,50.0
26,59.14763931888544,50.0
27,58.373645510835914,50.0
28,55.630804953560364,50.0
29,56.23065015479876,50.0
30,58.28173374613002,50.0
31,56.13390092879257,50.0
32,57.739938080495364,50.0
33,56.815982972136226,50.0
34,57.18363003095975,50.0
35,58.49941950464396,50.0
36,57.454527863777095,50.0
37,57.715750773993804,50.0
38,55.86784055727554,50.0
39,59.62654798761609,50.0
40,57.96729876160991,50.0
41,58.30592105263159,50.0
42,56.04198916408668,50.0
43,58.630030959752325,50.0
44,61.39705882352941,50.0
45,61.363196594427244,50.0
46,61.687306501548,50.0
47,58.82836687306502,50.0
48,57.46904024767802,50.0
49,53.76838235294117,50.0
50,58.310758513931894,50.0
51,59.91679566563467,50.0
52,59.22020123839008,50.0
53,58.262383900928796,50.0
54,56.17743808049536,50.0
55,58.19949690402477,50.0
56,59.03637770897833,50.0
57,59.75715944272446,50.0
58,62.54353715170278,50.0
59,57.39164086687306,50.0
60,57.19330495356037,50.0
61,57.83668730650155,50.0
62,59.09926470588237,50.0
63,61.64860681114551,50.0
64,57.57062693498452,50.0
65,57.95278637770897,50.0
66,59.737809597523224,50.0
67,59.76683436532509,50.0
68,61.28579721362229,50.0
69,58.630030959752325,50.0
70,56.18711300309597,50.0
71,57.03850619195047,50.0
72,55.67434210526316,50.0
73,53.91350619195047,50.0
74,60.68595201238391,50.0
75,58.07372291021672,50.0
76,58.03502321981424,50.0
77,55.31636996904025,50.0
78,59.989357585139324,50.0
79,58.20917182662539,50.0
80,57.125580495356026,50.0
81,58.07856037151702,50.0
82,55.1954334365325,50.0
83,55.71787925696595,50.0
84,62.01141640866872,50.0
85,57.285216718266255,50.0
86,58.949303405572756,50.0
87,58.48974458204334,50.0
88,57.22716718266253,50.0
89,62.02109133126935,50.0
90,57.028831269349844,50.0
91,57.1013931888545,50.0
92,58.13177244582044,50.0
93,58.45104489164087,50.0
94,58.79934210526317,50.0
95,59.665247678018574,50.0
96,57.73026315789473,50.0
97,61.34868421052631,50.0
98,55.930727554179555,50.0
99,58.71710526315788,50.0
100,56.477360681114554,50.0
101,58.26722136222911,50.0
102,60.84075077399381,50.0
103,57.46420278637771,50.0
104,57.47871517027864,50.0
105,60.21188080495356,50.0
106,61.17453560371517,50.0
107,58.95414086687306,50.0
108,59.6749226006192,50.0
109,58.47039473684211,50.0
110,58.654218266253864,50.0
111,57.294891640866865,50.0
112,58.620356037151694,50.0
113,60.20704334365326,50.0
114,52.641253869969034,50.0
115,57.20297987616099,50.0
116,59.940982972136226,50.0
117,57.92859907120744,50.0
118,58.412345201238395,50.0
119,56.54508513931889,50.0
120,57.45452786377709,50.0
121,57.20781733746129,50.0
122,55.90170278637771,50.0
123,61.78405572755419,50.0
124,55.3937693498452,50.0
125,59.10893962848298,50.0
126,59.38951238390093,50.0
127,56.98045665634674,50.0
128,60.342492260061924,50.0
129,54.06830495356037,50.0
130,58.528444272445824,50.0
131,59.69910990712074,50.0
132,56.08068885448915,50.0
133,59.8297213622291,50.0
134,58.95414086687306,50.0
135,58.276896284829725,50.0
136,58.03018575851393,50.0
137,60.405379256965944,50.0
138,60.52147832817338,50.0
139,56.893382352941174,50.0
140,59.65557275541796,50.0
141,57.18846749226006,50.0
142,63.056308049535616,50.0
143,58.697755417956664,50.0
144,58.533281733746136,50.0
145,55.630804953560386,50.0
146,57.65770123839009,50.0
147,56.78695820433437,50.0
148,60.284442724458195,50.0
149,57.74961300309597,50.0
150,58.47039473684211,50.0
151,57.023993808049546,50.0
152,60.545665634674926,50.0
153,60.284442724458195,50.0
154,57.914086687306494,50.0
155,57.76896284829721,50.0
156,60.023219814241486,50.0
157,55.77592879256965,50.0
158,61.94852941176472,50.0
159,59.8780959752322,50.0
160,57.32391640866872,50.0
161,62.93053405572755,50.0
162,58.93479102167183,50.0
163,59.39918730650154,50.0
164,59.868421052631575,50.0
165,58.13660990712074,50.0
166,58.654218266253864,50.0
167,60.274767801857585,50.0
168,56.99496904024768,50.0
169,59.69427244582043,50.0
170,57.836687306501545,50.0
171,57.06269349845201,50.0
172,62.12267801857586,50.0
173,60.51664086687306,50.0
174,60.298955108359145,50.0
175,58.620356037151694,50.0
176,59.45239938080495,50.0
177,58.93479102167183,50.0
178,60.46826625386996,50.0
179,52.92182662538699,50.0
180,58.70259287925697,50.0
181,55.219620743034056,50.0
182,56.49671052631579,50.0
183,56.835332817337466,50.0
184,58.528444272445824,50.0
185,61.64376934984521,50.0
186,57.502902476780186,50.0
187,57.24167956656346,50.0
188,57.19814241486068,50.0
189,61.78889318885449,50.0
190,57.76412538699691,50.0
191,61.77438080495355,50.0
192,59.08958978328173,50.0
193,60.903637770897845,50.0
194,57.28037925696595,50.0
195,57.80282507739938,50.0
196,61.18421052631578,50.0
197,56.903057275541805,50.0
198,58.40267027863778,50.0
199,56.40479876160991,50.0
200,58.272058823529406,50.0
201,61.01973684210526,50.0
202,55.872678018575854,50.0
203,58.23819659442725,50.0
204,59.80069659442724,50.0
205,59.19601393188856,50.0
206,58.678405572755416,50.0
207,57.31907894736842,50.0
208,54.83262383900928,50.0
209,55.31153250773993,50.0
210,59.40402476780186,50.0
211,58.920278637770885,50.0
212,62.22426470588234,50.0
213,54.982585139318886,50.0
214,60.09094427244582,50.0
215,59.28308823529412,50.0
216,60.39570433436532,50.0
217,58.10274767801858,50.0
218,60.12480650154799,50.0
219,55.21962074303405,50.0
220,57.94794891640866,50.0
221,60.003869969040245,50.0
222,54.69233746130031,50.0
223,59.39434984520124,50.0
224,57.01915634674923,50.0
225,59.31211300309598,50.0
226,55.011609907120736,50.0
227,56.41447368421053,50.0
228,61.71633126934985,50.0
229,58.983165634674926,50.0
230,58.94446594427246,50.0
231,62.13719040247679,50.0
232,60.632739938080505,50.0
233,58.15112229102167,50.0
234,57.47871517027864,50.0
235,60.80688854489164,50.0
236,64.44949690402477,50.0
237,56.44349845201239,50.0
238,55.751741486068106,50.0
239,57.149767801857585,50.0
240,57.556114551083596,50.0
241,56.961106811145505,50.0
242,58.12209752321981,50.0
243,62.95955882352941,50.0
244,60.79721362229102,50.0
245,59.22020123839009,50.0
246,60.06675696594427,50.0
247,54.74071207430342,50.0
248,58.26238390092879,50.0
249,61.232585139318886,50.0
250,58.38332043343654,50.0
251,56.627321981424146,50.0
252,57.18363003095975,50.0
253,56.39028637770897,50.0
254,61.9436919504644,50.0
255,60.40054179566564,50.0
256,58.223684210526315,50.0
257,56.58862229102167,50.0
258,59.56849845201239,50.0
259,56.73858359133126,50.0
260,55.935565015479874,50.0
261,60.371517027863774,50.0
262,60.9375,50.0
263,58.48974458204334,50.0
264,57.12558049535604,50.0
265,58.78482972136223,50.0
266,58.6687306501548,50.0
267,61.00522445820434,50.0
268,55.94523993808049,50.0
269,57.43034055727554,50.0
270,59.39434984520125,50.0
271,57.062693498452006,50.0
272,62.94020897832819,50.0
273,59.61687306501548,50.0
274,58.44620743034056,50.0
275,59.90712074303405,50.0
276,58.70743034055728,50.0
277,56.743421052631575,50.0
278,58.19465944272445,50.0
279,65.55727554179566,50.0
280,60.80205108359132,50.0
281,57.85119969040248,50.0
282,57.76412538699691,50.0
283,59.3266253869969,50.0
284,58.64938080495355,50.0
285,60.308630030959755,50.0
286,55.2921826625387,50.0
287,57.08688080495355,50.0
288,55.89686532507739,50.0
289,60.89396284829722,50.0
290,56.946594427244584,50.0
291,55.42763157894737,50.0
292,57.343266253869984,50.0
293,61.53250773993809,50.0
294,59.48142414860681,50.0
295,63.47716718266255,50.0
296,59.05089009287925,50.0
297,58.141447368421055,50.0
298,58.630030959752325,50.0
299,60.308630030959755,50.0
300,60.43924148606811,50.0
301,58.1656346749226,50.0
302,54.682662538699695,50.0
303,59.152476780185765,50.0
304,59.6265479876161,50.0
305,60.66660216718266,50.0
306,55.15673374613003,50.0
307,57.236842105263165,50.0
308,61.33417182662538,50.0
309,55.71787925696595,50.0
310,57.62867647058824,50.0
311,58.04469814241486,50.0
312,58.71226780185758,50.0
313,57.90924922600619,50.0
314,60.4295665634675,50.0
315,57.07720588235294,50.0
316,58.38332043343653,50.0
317,58.373645510835914,50.0
318,58.68324303405573,50.0
319,56.16292569659442,50.0
320,59.74264705882353,50.0
321,54.96807275541796,50.0
322,57.836687306501545,50.0
323,54.52302631578948,50.0
324,60.250580495356026,50.0
325,57.97213622291022,50.0
326,62.06462848297215,50.0
327,58.388157894736835,50.0
328,59.974845201238395,50.0
329,54.74071207430342,50.0
330,55.97910216718267,50.0
331,62.093653250774,50.0
332,56.3999613003096,50.0
333,58.015673374613016,50.0
334,57.56095201238389,50.0
335,60.976199690402474,50.0
336,57.54643962848298,50.0
337,61.72600619195047,50.0
338,58.34945820433437,50.0
339,56.520897832817326,50.0
340,53.79256965944273,50.0
341,56.41931114551083,50.0
342,56.40963622291023,50.0
343,60.26025541795666,50.0
344,57.84636222910217,50.0
345,58.620356037151694,50.0
346,56.33707430340557,50.0
347,59.23955108359133,50.0
348,57.00464396284831,50.0
349,57.36261609907121,50.0
350,57.59481424148607,50.0
351,59.76199690402477,50.0
352,58.64938080495356,50.0
353,59.336300309597526,50.0
354,56.211300309597526,50.0
355,58.61068111455109,50.0
356,57.502902476780186,50.0
357,61.78889318885449,50.0
358,63.13854489164087,50.0
359,58.50425696594428,50.0
360,59.795859133126946,50.0
361,58.431695046439636,50.0
362,60.4779411764706,50.0
363,61.17453560371517,50.0
364,57.37712848297214,50.0
365,61.60990712074304,50.0
366,58.23819659442725,50.0
367,57.889899380804955,50.0
368,59.200851393188856,50.0
369,57.30456656346749,50.0
370,60.018382352941174,50.0
371,57.89957430340557,50.0
372,60.82140092879257,50.0
373,56.20646284829722,50.0
374,61.36319659442726,50.0
375,56.617647058823515,50.0
376,56.12422600619195,50.0
377,57.164280185758514,50.0
378,57.0530185758514,50.0
379,60.45375386996904,50.0
380,58.7703173374613,50.0
381,57.89473684210526,50.0
382,58.87674148606811,50.0
383,57.043343653250766,50.0
384,58.567143962848306,50.0
385,56.77244582043344,50.0
386,61.42608359133126,50.0
387,56.36126160990712,50.0
388,57.71575077399381,50.0
389,57.062693498452006,50.0
390,59.74264705882352,50.0
391,55.790441176470594,50.0
392,59.38951238390092,50.0
393,62.01141640866872,50.0
394,58.455882352941174,50.0
395,56.32256191950464,50.0
396,58.189821981424146,50.0
397,60.86493808049536,50.0
398,58.28173374613002,50.0
399,57.60448916408669,50.0
400,56.63699690402477,50.0
401,59.940982972136226,50.0
402,58.10274767801858,50.0
403,58.939628482972125,50.0
404,58.76064241486068,50.0
405,59.86842105263157,50.0
406,56.03231424148607,50.0
407,62.94504643962848,50.0
408,61.580882352941174,50.0
409,55.95491486068111,50.0
410,60.44407894736842,50.0
411,57.91892414860682,50.0
412,54.83746130030959,50.0
413,59.64106037151703,50.0
414,61.904992260061924,50.0
415,60.269930340557266,50.0
416,59.62654798761609,50.0
417,56.48703560371518,50.0
418,54.17472910216719,50.0
419,59.39918730650155,50.0
420,55.553405572755416,50.0
421,59.20085139318885,50.0
422,59.515286377708975,50.0
423,58.39783281733745,50.0
424,57.570626934984524,50.0
425,56.73858359133127,50.0
426,59.839396284829725,50.0
427,61.66311919504645,50.0
428,60.20704334365325,50.0
429,58.22852167182663,50.0
430,58.33494582043343,50.0
431,57.02399380804954,50.0
432,55.72755417956656,50.0
433,60.74883900928793,50.0
434,60.88428792569659,50.0
435,58.286571207430335,50.0
436,60.15383126934984,50.0
437,60.3860294117647,50.0
438,56.08068885448916,50.0
439,60.55050309597523,50.0
440,60.03773219814242,50.0
441,53.52650928792569,50.0
442,55.86784055727554,50.0
443,57.55127708978328,50.0
444,61.55185758513932,50.0
445,61.619582043343655,50.0
446,59.631385448916404,50.0
447,61.266447368421055,50.0
448,57.76896284829722,50.0
449,55.887190402476776,50.0
450,55.22929566563468,50.0
451,58.43169504643963,50.0
452,57.9624613003096,50.0
453,58.523606811145505,50.0
454,65.11222910216719,50.0
455,56.69020897832817,50.0
456,55.80495356037152,50.0
457,58.175309597523224,50.0
458,59.689434984520126,50.0
459,56.578947368421055,50.0
460,60.74883900928793,50.0
461,58.37848297213623,50.0
462,56.09520123839008,50.0
463,56.72407120743035,50.0
464,57.87538699690401,50.0
465,59.83939628482972,50.0
466,60.40054179566564,50.0
467,59.9313080495356,50.0
468,53.90383126934985,50.0
469,58.963815789473685,50.0
470,58.678405572755416,50.0
471,56.38544891640866,50.0
472,62.37422600619195,50.0
473,59.99903250773993,50.0
474,56.651509287925705,50.0
475,58.286571207430335,50.0
476,59.892608359133135,50.0
477,54.83746130030959,50.0
478,61.450270897832816,50.0
479,56.89338235294118,50.0
480,59.215363777089784,50.0
481,57.62867647058824,50.0
482,61.817917956656345,50.0
483,59.40886222910216,50.0
484,63.012770897832816,50.0
485,60.96168730650156,50.0
486,59.54431114551083,50.0
487,56.12906346749226,50.0
488,59.63622291021672,50.0
489,58.388157894736835,50.0
490,55.96942724458204,50.0
491,56.76760835913313,50.0
492,58.26238390092879,50.0
493,58.90576625386997,50.0
494,56.3515866873065,50.0
495,56.4483359133127,50.0
496,59.181501547987615,50.0
497,60.02805727554179,50.0
498,60.37635448916409,50.0
499,60.511803405572756,50.0
500,56.680534055727556,50.0
501,58.50425696594427,50.0
502,58.155959752321984,50.0
503,57.498065015479874,50.0
504,58.3639705882353,50.0
505,59.78134674922601,50.0
506,56.932082043343655,50.0
507,61.95820433436532,50.0
508,57.80282507739939,50.0
509,54.18440402476781,50.0
510,58.929953560371516,50.0
511,54.17956656346749,50.0
512,57.92376160990712,50.0
513,55.800116099071204,50.0
514,58.38815789473684,50.0
515,55.500193498452006,50.0
516,57.87054953560372,50.0
517,54.992260061919495,50.0
518,56.9562693498452,50.0
519,58.049535603715164,50.0
520,57.82701238390092,50.0
521,57.62383900928793,50.0
522,57.46904024767802,50.0
523,59.58301083591331,50.0
524,58.16563467492259,50.0
525,59.63138544891641,50.0
526,58.74129256965944,50.0
527,56.433823529411775,50.0
528,59.11861455108359,50.0
529,59.15731424148607,50.0
530,57.37712848297214,50.0
531,58.494582043343655,50.0
532,57.527089783281724,50.0
533,54.65363777089783,50.0
534,59.631385448916404,50.0
535,53.74903250773993,50.0
536,58.06888544891641,50.0
537,59.418537151702786,50.0
538,63.52554179566565,50.0
539,60.158668730650156,50.0
540,59.71362229102167,50.0
541,59.76199690402477,50.0
542,57.10623065015481,50.0
543,57.04818111455109,50.0
544,61.27128482972136,50.0
545,58.74129256965944,50.0
546,56.88854489164086,50.0
547,59.994195046439636,50.0
548,58.43653250773993,50.0
549,57.14009287925696,50.0
550,60.90847523219815,50.0
551,61.70665634674923,50.0
552,59.68943498452012,50.0
553,56.99013157894736,50.0
554,59.955495356037154,50.0
555,58.209171826625386,50.0
556,56.34674922600619,50.0
557,58.035023219814235,50.0
558,58.784829721362236,50.0
559,58.56230650154799,50.0
560,60.255417956656345,50.0
561,59.955495356037154,50.0
562,60.06191950464396,50.0
563,60.9858746130031,50.0
564,60.023219814241486,50.0
565,58.02051083591331,50.0
566,57.62383900928793,50.0
567,58.76064241486068,50.0
568,56.68537151702785,50.0
569,55.8968653250774,50.0
570,60.207043343653254,50.0
571,61.10197368421053,50.0
572,57.22232972136223,50.0
573,57.69640092879257,50.0
574,59.22987616099071,50.0
575,59.60236068111454,50.0
576,58.82836687306502,50.0
577,60.13448142414861,50.0
578,56.26934984520123,50.0
579,61.36319659442726,50.0
580,58.86706656346749,50.0
581,56.63215944272446,50.0
582,60.03773219814241,50.0
583,57.45936532507739,50.0
584,58.978328173374614,50.0
585,60.057082043343655,50.0
586,59.42337461300309,50.0
587,58.489744582043336,50.0
588,64.19794891640866,50.0
589,60.46826625386996,50.0
590,55.567917956656345,50.0
591,59.76199690402476,50.0
592,55.4421439628483,50.0
593,52.442917956656345,50.0
594,59.59268575851393,50.0
595,60.07159442724459,50.0
596,57.98181114551083,50.0
597,59.38951238390093,50.0
598,57.807662538699695,50.0
599,56.782120743034056,50.0
600,56.48703560371517,50.0
601,53.700657894736835,50.0
602,57.991486068111456,50.0
603,58.35913312693499,50.0
604,55.25348297213621,50.0
605,56.627321981424146,50.0
606,56.02263931888545,50.0
607,58.10274767801858,50.0
608,56.97078173374612,50.0
609,57.45936532507739,50.0
610,58.30108359133128,50.0
611,59.61203560371517,50.0
612,58.630030959752325,50.0
613,58.958978328173366,50.0
614,59.38467492260062,50.0
615,58.79934210526316,50.0
616,55.993614551083596,50.0
617,59.645897832817326,50.0
618,57.972136222910216,50.0
619,60.913312693498455,50.0
620,57.86571207430341,50.0
621,56.99013157894736,50.0
622,61.904992260061924,50.0
623,57.97213622291021,50.0
624,58.69775541795666,50.0
625,59.70394736842105,50.0
626,57.31907894736842,50.0
627,59.529798761609904,50.0
628,58.70259287925696,50.0
629,58.95897832817337,50.0
630,60.12480650154799,50.0
631,57.575464396284836,50.0
632,55.80979102167183,50.0
633,61.01973684210527,50.0
634,59.73297213622292,50.0
635,60.71013931888544,50.0
636,62.46130030959751,50.0
637,60.173181114551085,50.0
638,63.14338235294116,50.0
639,58.19465944272446,50.0
640,52.93150154798762,50.0
641,57.55611455108359,50.0
642,58.93962848297214,50.0
643,55.06965944272446,50.0
644,59.45723684210526,50.0
645,59.69910990712076,50.0
646,61.52283281733745,50.0
647,59.07023993808049,50.0
648,56.86435758513932,50.0
649,54.91002321981424,50.0
650,57.822174922600624,50.0
651,58.40267027863777,50.0
652,59.24922600619194,50.0
653,53.89899380804953,50.0
654,59.99419504643963,50.0
655,58.44136996904025,50.0
656,59.137964396284836,50.0
657,57.91892414860682,50.0
658,62.238777089783284,50.0
659,57.66737616099071,50.0
660,56.19195046439628,50.0
661,55.50986842105263,50.0
662,59.307275541795676,50.0
663,58.57198142414862,50.0
664,61.42608359133126,50.0
665,59.85874613003096,50.0
666,57.16428018575851,50.0
667,61.1358359133127,50.0
668,58.054373065015476,50.0
669,56.28869969040248,50.0
670,56.259674922600624,50.0
671,56.0516640866873,50.0
672,61.01973684210526,50.0
673,58.63970588235294,50.0
674,59.08475232198142,50.0
675,60.37635448916409,50.0
676,58.494582043343655,50.0
677,61.237422600619205,50.0
678,58.639705882352935,50.0
679,58.07372291021672,50.0
680,56.62732198142413,50.0
681,57.304566563467496,50.0
682,58.33010835913313,50.0
683,58.58165634674922,50.0
684,58.60584365325078,50.0
685,54.1844040247678,50.0
686,60.845588235294116,50.0
687,57.29489164086687,50.0
688,60.10061919504645,50.0
689,60.424729102167184,50.0
690,60.594040247678016,50.0
691,58.349458204334354,50.0
692,61.2906346749226,50.0
693,59.3701625386997,50.0
694,55.954914860681114,50.0
695,58.36880804953561,50.0
696,63.786764705882355,50.0
697,58.95897832817338,50.0
698,56.64183436532507,50.0
699,59.621710526315795,50.0
700,57.768962848297214,50.0
701,63.14821981424147,50.0
702,63.55940402476781,50.0
703,55.253482972136226,50.0
704,62.538699690402474,50.0
705,57.24167956656348,50.0
706,56.912732198142415,50.0
707,59.002515479876166,50.0
708,59.24438854489165,50.0
709,58.678405572755416,50.0
710,59.97000773993808,50.0
711,61.222910216718276,50.0
712,56.69988390092879,50.0
713,56.00328947368422,50.0
714,60.023219814241486,50.0
715,58.16563467492261,50.0
716,58.475232198142415,50.0
717,58.10758513931888,50.0
718,54.81327399380805,50.0
719,60.0812693498452,50.0
720,58.46555727554179,50.0
721,59.08958978328173,50.0
722,61.07778637770898,50.0
723,58.17047213622291,50.0
724,59.36048761609907,50.0
725,56.48703560371517,50.0
726,55.717879256965944,50.0
727,58.93479102167183,50.0
728,56.06617647058823,50.0
729,58.813854489164086,50.0
730,59.43304953560372,50.0
731,57.16428018575851,50.0
732,59.22987616099071,50.0
733,57.58997678018575,50.0
734,57.08688080495356,50.0
735,57.319078947368425,50.0
736,57.3045665634675,50.0
737,57.972136222910216,50.0
738,55.843653250774,50.0
739,58.117260061919495,50.0
740,57.691563467492266,50.0
741,60.58920278637771,50.0
742,57.98181114551084,50.0
743,57.193304953560364,50.0
744,59.56366099071209,50.0
745,55.858165634674926,50.0
746,56.893382352941174,50.0
747,59.18633900928791,50.0
748,58.49941950464397,50.0
749,55.688854489164086,50.0
750,60.9375,50.0
751,58.262383900928796,50.0
752,56.69504643962848,50.0
753,59.22987616099071,50.0
754,57.26586687306501,50.0
755,60.661764705882355,50.0
756,55.78076625386996,50.0
757,56.071013931888544,50.0
758,56.17743808049536,50.0
759,59.25406346749226,50.0
760,55.00193498452012,50.0
761,57.02883126934984,50.0
762,56.29353715170278,50.0
763,59.76199690402478,50.0
764,60.44891640866872,50.0
765,60.913312693498455,50.0
766,55.99845201238389,50.0
767,59.96517027863778,50.0
768,59.86358359133128,50.0
769,56.34674922600618,50.0
770,56.52089783281734,50.0
771,56.13390092879257,50.0
772,54.49883900928792,50.0
773,56.99013157894737,50.0
774,58.60100619195047,50.0
775,56.86435758513932,50.0
776,60.332817337461314,50.0
777,62.156540247678016,50.0
778,60.531153250774,50.0
779,55.045472136222905,50.0
780,55.47116873065016,50.0
781,57.42550309597524,50.0
782,58.557469040247675,50.0
783,58.84771671826625,50.0
784,60.21188080495356,50.0
785,61.0826238390093,50.0
786,62.11300309597523,50.0
787,56.84500773993808,50.0
788,56.24516253869969,50.0
789,55.63564241486068,50.0
790,59.834558823529406,50.0
791,59.283088235294116,50.0
792,59.882933436532504,50.0
793,57.3045665634675,50.0
794,57.62867647058823,50.0
795,62.28231424148608,50.0
796,56.59829721362229,50.0
797,56.78695820433436,50.0
798,60.289280185758514,50.0
799,60.14415634674923,50.0
800,59.08475232198142,50.0
801,58.983165634674926,50.0
802,56.86435758513932,50.0
803,58.32043343653251,50.0
804,56.08068885448916,50.0
805,55.524380804953566,50.0
806,60.41021671826625,50.0
807,58.504256965944286,50.0
808,58.465557275541805,50.0
809,59.142801857585134,50.0
810,60.60371517027864,50.0
811,60.25058049535604,50.0
812,57.17395510835913,50.0
813,57.39647832817337,50.0
814,59.02186532507739,50.0
815,57.836687306501545,50.0
816,59.22020123839009,50.0
817,57.972136222910216,50.0
818,57.82701238390092,50.0
819,55.306695046439636,50.0
820,59.534636222910216,50.0
821,55.60178018575851,50.0
822,54.42627708978328,50.0
823,54.91486068111455,50.0
824,57.836687306501545,50.0
825,57.038506191950475,50.0
826,58.7703173374613,50.0
827,56.06617647058823,50.0
828,58.64938080495355,50.0
829,57.164280185758514,50.0
830,57.527089783281724,50.0
831,57.652863777089784,50.0
832,59.4717492260062,50.0
833,59.42821207430342,50.0
834,56.79663312693498,50.0
835,59.04605263157894,50.0
836,59.08475232198142,50.0
837,59.64106037151702,50.0
838,57.67705108359134,50.0
839,57.27554179566563,50.0
840,58.276896284829725,50.0
841,57.44485294117647,50.0
842,59.08475232198142,50.0
843,59.03637770897833,50.0
844,59.007352941176464,50.0
845,59.12345201238389,50.0
846,55.67917956656347,50.0
847,57.31907894736842,50.0
848,57.62383900928793,50.0
849,60.45859133126935,50.0
850,62.16137770897832,50.0
851,63.27883126934983,50.0
852,62.906346749226,50.0
853,54.47465170278638,50.0
854,60.173181114551085,50.0
855,59.181501547987615,50.0
856,60.01354489164087,50.0
857,56.50154798761611,50.0
858,58.13177244582043,50.0
859,57.52708978328173,50.0
860,59.955495356037154,50.0
861,56.14841331269349,50.0
862,59.81037151702785,50.0
863,59.97000773993808,50.0
864,59.20568885448917,50.0
865,60.90847523219815,50.0
866,55.35990712074303,50.0
867,52.897639318885446,50.0
868,58.88641640866874,50.0
869,55.485681114551085,50.0
870,58.36880804953561,50.0
871,59.46691176470588,50.0
872,58.359133126934985,50.0
873,57.35294117647059,50.0
874,54.95839783281734,50.0
875,59.49109907120743,50.0
876,58.53328173374613,50.0
877,58.06888544891642,50.0
878,55.921052631578945,50.0
879,58.910603715170275,50.0
880,61.45994582043345,50.0
881,60.97136222910217,50.0
882,59.67008513931889,50.0
883,59.32662538699691,50.0
884,59.26857585139319,50.0
885,61.9485294117647,50.0
886,58.692917956656345,50.0
887,63.33688080495355,50.0
888,57.85603715170279,50.0
889,56.5015479876161,50.0
890,60.50696594427244,50.0
891,55.89686532507741,50.0
892,59.03637770897832,50.0
893,60.221555727554176,50.0
894,59.96517027863777,50.0
895,58.320433436532504,50.0
896,59.23955108359133,50.0
897,60.579527863777095,50.0
898,57.47387770897832,50.0
899,59.94582043343653,50.0
900,57.406153250774,50.0
901,60.835913312693506,50.0
902,56.037151702786375,50.0
903,54.76973684210527,50.0
904,62.35971362229103,50.0
905,57.091718266253864,50.0
906,56.31772445820433,50.0
907,54.731037151702786,50.0
908,58.963815789473685,50.0
909,59.59268575851392,50.0
910,58.37364551083592,50.0
911,60.90847523219815,50.0
912,61.455108359133135,50.0
913,57.01431888544892,50.0
914,57.29972910216719,50.0
915,57.43034055727554,50.0
916,58.30592105263158,50.0
917,63.124032507739955,50.0
918,62.75154798761609,50.0
919,58.257546439628484,50.0
920,56.77728328173374,50.0
921,61.537345201238395,50.0
922,56.646671826625386,50.0
923,55.190595975232185,50.0
924,57.285216718266255,50.0
925,61.84694272445821,50.0
926,59.53463622291022,50.0
927,54.97774767801858,50.0
928,59.79585913312694,50.0
929,58.14628482972137,50.0
930,60.16350619195047,50.0
931,59.650735294117645,50.0
932,58.75580495356037,50.0
933,57.69156346749226,50.0
934,59.43788699690401,50.0
935,60.49245356037152,50.0
936,60.9858746130031,50.0
937,56.06133900928791,50.0
938,58.13177244582043,50.0
939,61.15034829721361,50.0
940,54.55205108359133,50.0
941,54.40208978328174,50.0
942,59.33146284829722,50.0
943,57.66737616099071,50.0
944,60.632739938080505,50.0
945,62.67898606811144,50.0
946,57.585139318885446,50.0
947,59.15247678018576,50.0
948,56.9562693498452,50.0
949,59.636222910216716,50.0
950,59.39918730650155,50.0
951,58.102747678018574,50.0
952,57.319078947368425,50.0
953,56.3564241486068,50.0
954,56.559597523219814,50.0
955,59.703947368421055,50.0
956,53.92801857585139,50.0
957,58.44620743034056,50.0
958,62.683823529411775,50.0
959,57.338428792569665,50.0
960,59.11377708978328,50.0
961,62.5967492260062,50.0
962,55.12770897832818,50.0
963,57.81733746130031,50.0
964,58.24303405572755,50.0
965,57.285216718266255,50.0
966,60.51664086687306,50.0
967,61.76470588235294,50.0
968,61.60990712074304,50.0
969,57.6141640866873,50.0
970,60.22155572755418,50.0
971,57.57546439628483,50.0
972,59.21536377708978,50.0
973,57.236842105263165,50.0
974,57.64318885448917,50.0
975,58.83804179566563,50.0
976,56.317724458204324,50.0
977,57.469040247678016,50.0
978,53.76838235294117,50.0
979,59.22987616099073,50.0
980,59.28792569659442,50.0
981,59.84423374613004,50.0
982,59.936145510835914,50.0
983,55.48568111455109,50.0
984,58.85255417956657,50.0
985,61.213235294117645,50.0
986,58.68324303405572,50.0
987,58.89609133126935,50.0
988,59.815208978328165,50.0
989,58.625193498452006,50.0
990,57.59965170278639,50.0
991,55.76625386996904,50.0
992,59.041215170278626,50.0
993,57.265866873065015,50.0
994,61.50348297213621,50.0
995,61.890479876160995,50.0
996,52.505804953560364,50.0
997,58.54779411764705,50.0
998,55.91621517027863,50.0
999,61.3390092879257,50.0
1000,61.09713622291022,50.0
1001,59.40886222910216,50.0
1002,62.41776315789474,50.0
1003,56.41447368421051,50.0
1004,58.81869195046439,50.0
1005,56.76277089783281,50.0
1006,57.67221362229102,50.0
1007,57.47871517027863,50.0
1008,62.804760061919495,50.0
1009,58.27205882352941,50.0
1010,57.314241486068106,50.0
1011,59.2202012383901,50.0
1012,59.36048761609907,50.0
1013,61.40189628482972,50.0
1014,58.8670665634675,50.0
1015,56.36126160990712,50.0
1016,59.940982972136226,50.0
1017,57.50773993808049,50.0
1018,60.318304953560364,50.0
1019,58.28173374613003,50.0
1020,56.153250773993804,50.0
1021,60.03289473684211,50.0
1022,55.5969427244582,50.0
1023,55.9452399380805,50.0
1024,55.616292569659436,50.0
1025,60.33765479876159,50.0
1026,60.661764705882355,50.0
1027,60.10061919504644,50.0
1028,62.11784055727554,50.0
1029,61.85661764705884,50.0
1030,60.05224458204334,50.0
1031,57.99632352941176,50.0
1032,58.7171052631579,50.0
1033,63.806114551083574,50.0
1034,58.625193498452006,50.0
1035,58.741292569659436,50.0
1036,60.095781733746136,50.0
1037,59.050890092879264,50.0
1038,57.56578947368421,50.0
1039,54.47465170278639,50.0
1040,57.58997678018576,50.0
1041,61.817917956656345,50.0
1042,58.8235294117647,50.0
1043,57.34810371517028,50.0
1044,59.55398606811144,50.0
1045,59.534636222910216,50.0
1046,53.18788699690403,50.0
1047,58.75580495356037,50.0
1048,56.84984520123839,50.0
1049,63.820626934984524,50.0
1050,58.775154798761605,50.0
1051,60.11513157894736,50.0
1052,57.45936532507739,50.0
1053,57.94794891640867,50.0
1054,58.9638157894737,50.0
1055,60.584365325077385,50.0
1056,56.946594427244584,50.0
1057,61.75503095975233,50.0
1058,55.20994582043343,50.0
1059,61.77438080495355,50.0
1060,60.927825077399376,50.0
1061,57.18846749226005,50.0
1062,54.866486068111456,50.0
1063,57.09171826625387,50.0
1064,59.1234520123839,50.0
1065,56.825657894736835,50.0
1066,60.66660216718266,50.0
1067,59.670085139318886,50.0
1068,59.747484520123855,50.0
1069,61.329334365325074,50.0
1070,55.97910216718266,50.0
1071,59.22020123839008,50.0
1072,58.97832817337462,50.0
1073,58.75096749226005,50.0
1074,59.20568885448916,50.0
1075,57.643188854489175,50.0
1076,57.99148606811145,50.0
1077,58.24787151702786,50.0
1078,59.34113777089784,50.0
1079,59.1234520123839,50.0
1080,59.200851393188856,50.0
1081,58.01567337461301,50.0
1082,58.50425696594428,50.0
1083,58.896091331269346,50.0
1084,56.43382352941177,50.0
1085,62.587074303405586,50.0
1086,56.25,50.0
1087,56.961106811145505,50.0
1088,58.61068111455109,50.0
1089,58.562306501547994,50.0
1090,58.828366873065015,50.0
1091,58.17530959752322,50.0
1092,60.95684984520124,50.0
1093,56.92724458204334,50.0
1094,58.9202786377709,50.0
1095,60.86010061919505,50.0
1096,57.78347523219814,50.0
1097,59.87325851393189,50.0
1098,59.38467492260062,50.0
1099,55.742066563467496,50.0
1100,54.624613003095966,50.0
1101,60.1344814241486,50.0
1102,58.765479876160995,50.0
1103,58.900928792569665,50.0
1104,57.92859907120743,50.0
1105,58.07856037151703,50.0
1106,57.35294117647059,50.0
1107,53.94736842105264,50.0
1108,57.35777863777089,50.0
1109,60.874613003095966,50.0
1110,55.746904024767794,50.0
1111,57.77863777089783,50.0
1112,59.16215170278638,50.0
1113,55.534055727554176,50.0
1114,59.07507739938081,50.0
1115,57.01431888544892,50.0
1116,60.44407894736842,50.0
1117,51.92047213622291,50.0
1118,58.035023219814235,50.0
1119,58.83320433436532,50.0
1120,55.38893188854489,50.0
1121,61.35352167182663,50.0
1122,63.636803405572756,50.0
1123,57.8657120743034,50.0
1124,59.59752321981425,50.0
1125,56.51122291021672,50.0
1126,59.48626160990711,50.0
1127,59.71362229102167,50.0
1128,59.38951238390092,50.0
1129,58.968653250774,50.0
1130,57.52708978328174,50.0
1131,61.9485294117647,50.0
1132,57.39164086687307,50.0
1133,55.882352941176464,50.0
1134,59.752321981424146,50.0
1135,59.52979876160991,50.0
1136,59.6265479876161,50.0
1137,56.927244582043336,50.0
1138,58.842879256965944,50.0
1139,59.747484520123834,50.0
1140,55.44698142414861,50.0
1141,58.13177244582044,50.0
1142,59.95549535603715,50.0
1143,54.34887770897833,50.0
1144,58.12693498452012,50.0
1145,59.28792569659442,50.0
1146,56.41931114551083,50.0
1147,55.190595975232206,50.0
1148,57.7641253869969,50.0
1149,55.872678018575854,50.0
1150,57.599651702786375,50.0
1151,58.24787151702786,50.0
1152,57.10139318885449,50.0
1153,59.031540247678016,50.0
1154,55.95007739938082,50.0
1155,57.03850619195046,50.0
1156,57.69156346749226,50.0
1157,57.89473684210526,50.0
1158,58.460719814241486,50.0
1159,57.735100619195045,50.0
1160,57.285216718266255,50.0
1161,59.72329721362229,50.0
1162,59.974845201238395,50.0
1163,60.5359907120743,50.0
1164,58.330108359133135,50.0
1165,57.1594427244582,50.0
1166,58.05921052631579,50.0
1167,57.04334365325077,50.0
1168,57.83184984520124,50.0
1169,57.74477554179567,50.0
1170,57.54643962848297,50.0
1171,55.96942724458205,50.0
1172,58.53328173374613,50.0
1173,60.49245356037152,50.0
1174,61.06811145510836,50.0
1175,52.59771671826625,50.0
1176,57.169117647058826,50.0
1177,56.25483746130031,50.0
1178,57.74961300309599,50.0
1179,57.14009287925697,50.0
1180,62.01141640866874,50.0
1181,61.0487616099071,50.0
1182,60.395704334365334,50.0
1183,58.97349071207431,50.0
1184,60.81172600619195,50.0
1185,61.42608359133126,50.0
1186,58.63970588235295,50.0
1187,55.78076625386996,50.0
1188,58.1124226006192,50.0
1189,57.08204334365325,50.0
1190,59.234713622291025,50.0
1191,59.13796439628483,50.0
1192,54.21342879256966,50.0
1193,60.75367647058823,50.0
1194,56.14357585139319,50.0
1195,56.656346749226,50.0
1196,60.163506191950475,50.0
1197,59.58784829721362,50.0
1198,59.26373839009288,50.0
1199,57.159442724458195,50.0
1200,59.56366099071208,50.0
1201,58.27205882352941,50.0
1202,59.64589783281734,50.0
1203,56.59829721362229,50.0
1204,57.53192724458204,50.0
1205,54.96807275541795,50.0
1206,56.6031346749226,50.0
1207,62.36455108359132,50.0
1208,61.904992260061924,50.0
1209,60.090944272445824,50.0
1210,58.58165634674923,50.0
1211,55.82430340557275,50.0
1212,60.25058049535604,50.0
1213,59.800696594427244,50.0
1214,59.62171052631579,50.0
1215,56.97561919504645,50.0
1216,57.94311145510835,50.0
1217,58.4703947368421,50.0
1218,62.91602167182662,50.0
1219,58.03502321981425,50.0
1220,57.87054953560371,50.0
1221,59.62171052631578,50.0
1222,55.8968653250774,50.0
1223,56.927244582043336,50.0
1224,58.25270897832817,50.0
1225,60.5359907120743,50.0
1226,64.31404798761609,50.0
1227,58.296246130030966,50.0
1228,59.04605263157895,50.0
1229,60.216718266253864,50.0
1230,53.78289473684212,50.0
1231,60.20704334365325,50.0
1232,59.945820433436516,50.0
1233,59.71845975232198,50.0
1234,59.33146284829723,50.0
1235,54.11184210526316,50.0
1236,59.65557275541795,50.0
1237,59.495936532507734,50.0
1238,62.72736068111455,50.0
1239,58.8670665634675,50.0
1240,57.68672600619196,50.0
1241,57.92859907120743,50.0
1242,53.93285603715171,50.0
1243,58.18498452012384,50.0
1244,58.01083591331269,50.0
1245,59.51044891640867,50.0
1246,61.15034829721361,50.0
1247,56.72407120743034,50.0
1248,60.942337461300305,50.0
1249,58.726780185758514,50.0
1250,63.27883126934983,50.0
1251,58.00116099071208,50.0
1252,57.96246130030959,50.0
1253,61.21323529411763,50.0
1254,60.342492260061924,50.0
1255,59.88293343653251,50.0
1256,57.56578947368422,50.0
1257,56.98529411764706,50.0
1258,58.243034055727556,50.0
1259,60.22639318885449,50.0
1260,60.139318885448915,50.0
1261,56.56927244582044,50.0
1262,59.01702786377709,50.0
1263,57.92859907120743,50.0
1264,60.226393188854495,50.0
1265,58.760642414860676,50.0
1266,56.73858359133126,50.0
1267,58.73645510835913,50.0
1268,58.30108359133128,50.0
1269,57.94311145510835,50.0
1270,59.50077399380806,50.0
1271,60.86493808049536,50.0
1272,61.551857585139324,50.0
1273,62.54837461300309,50.0
1274,55.8484907120743,50.0
1275,57.08688080495356,50.0
1276,58.21400928792569,50.0
1277,58.77031733746129,50.0
1278,56.94659442724458,50.0
1279,61.50348297213624,50.0
1280,61.517995356037154,50.0
1281,55.340557275541805,50.0
1282,57.92859907120742,50.0
1283,61.66311919504645,50.0
1284,56.52089783281734,50.0
1285,58.91060371517028,50.0
1286,54.82778637770898,50.0
1287,59.868421052631575,50.0
1288,56.39028637770898,50.0
1289,60.90847523219815,50.0
1290,57.49806501547988,50.0
1291,60.57469040247679,50.0
1292,63.433630030959755,50.0
1293,58.726780185758514,50.0
1294,57.44485294117647,50.0
1295,60.071594427244584,50.0
1296,57.85603715170279,50.0
1297,59.64106037151702,50.0
1298,56.32256191950464,50.0
1299,61.895317337461314,50.0
1300,60.96168730650156,50.0
1301,57.61900154798762,50.0
1302,61.41640866873065,50.0
1303,62.156540247678016,50.0
1304,54.31501547987616,50.0
1305,57.88506191950464,50.0
1306,59.06056501547988,50.0
1307,59.7281346749226,50.0
1308,58.28173374613002,50.0
1309,56.46768575851394,50.0
1310,58.001160990712066,50.0
1311,54.50367647058823,50.0
1312,56.71923374613003,50.0
1313,59.81037151702787,50.0
1314,56.40479876160991,50.0
1315,59.24922600619194,50.0
1316,57.091718266253864,50.0
1317,61.590557275541805,50.0
1318,56.80147058823529,50.0
1319,56.33707430340557,50.0
1320,54.61493808049536,50.0
1321,59.12828947368421,50.0
1322,57.21265479876161,50.0
1323,57.454527863777095,50.0
1324,59.76683436532508,50.0
1325,57.92859907120742,50.0
1326,57.401315789473685,50.0
1327,58.21884674922601,50.0
1328,58.22852167182663,50.0
1329,59.442724458204346,50.0
1330,58.683243034055735,50.0
1331,58.67840557275542,50.0
1332,59.52979876160992,50.0
1333,55.47600619195046,50.0
1334,58.141447368421055,50.0
1335,57.86571207430341,50.0
1336,55.5921052631579,50.0
1337,57.27554179566564,50.0
1338,55.224458204334375,50.0
1339,61.18904798761609,50.0
1340,61.556695046439636,50.0
1341,58.14628482972135,50.0
1342,63.24013157894738,50.0
1343,58.80901702786378,50.0
1344,57.933436532507734,50.0
1345,58.41234520123839,50.0
1346,59.79102167182663,50.0
1347,59.882933436532504,50.0
1348,56.932082043343655,50.0
1349,60.845588235294116,50.0
1350,54.348877708978335,50.0
1351,57.32875386996904,50.0
1352,55.587267801857585,50.0
1353,56.525735294117645,50.0
1354,54.55688854489164,50.0
1355,56.70955882352941,50.0
1356,60.50696594427244,50.0
1357,57.87538699690402,50.0
1358,58.509094427244584,50.0
1359,57.63351393188855,50.0
1360,61.41157120743033,50.0
1361,61.16002321981424,50.0
1362,57.9624613003096,50.0
1363,58.97832817337461,50.0
1364,59.21052631578948,50.0
1365,57.32391640866873,50.0
1366,61.82275541795666,50.0
1367,55.756578947368425,50.0
1368,58.98800309597524,50.0
1369,61.837267801857585,50.0
1370,58.33494582043344,50.0
1371,56.99013157894736,50.0
1372,58.23819659442724,50.0
1373,55.408281733746136,50.0
1374,56.92240712074304,50.0
1375,59.66041021671827,50.0
1376,60.11513157894737,50.0
1377,60.64725232198143,50.0
1378,57.51257739938081,50.0
1379,59.766834365325074,50.0
1380,59.83455882352941,50.0
1381,59.16215170278638,50.0
1382,58.00116099071208,50.0
1383,58.441369969040245,50.0
1384,58.765479876160995,50.0
1385,54.09732972136223,50.0
1386,59.31211300309597,50.0
1387,61.84694272445821,50.0
1388,60.77786377708979,50.0
1389,57.74961300309598,50.0
1390,58.02051083591331,50.0
1391,59.01702786377709,50.0
1392,59.09926470588235,50.0
1393,56.18227554179566,50.0
1394,58.68324303405572,50.0
1395,59.38951238390093,50.0
1396,57.76412538699691,50.0
1397,59.02670278637771,50.0
1398,59.3266253869969,50.0
1399,59.01702786377708,50.0
1400,61.363196594427244,50.0
1401,59.86358359133128,50.0
1402,55.47600619195047,50.0
1403,59.53463622291022,50.0
1404,56.26451238390093,50.0
1405,58.88157894736841,50.0
1406,62.10332817337461,50.0
1407,54.95839783281733,50.0
1408,56.20162538699691,50.0
1409,59.76199690402477,50.0
1410,58.504256965944286,50.0
1411,56.162925696594435,50.0
1412,57.37712848297213,50.0
1413,57.498065015479874,50.0
1414,58.862229102167184,50.0
1415,58.576818885448915,50.0
1416,56.80147058823529,50.0
1417,59.578173374613,50.0
1418,59.77650928792569,50.0
1419,56.26934984520124,50.0
1420,55.61145510835914,50.0
1421,55.4421439628483,50.0
1422,63.18691950464396,50.0
1423,58.61068111455108,50.0
1424,56.6515092879257,50.0
1425,59.283088235294116,50.0
1426,57.701238390092875,50.0
1427,55.47600619195046,50.0
1428,57.20781733746131,50.0
1429,55.76625386996904,50.0
1430,59.05572755417957,50.0
1431,58.53811919504645,50.0
1432,59.481424148606806,50.0
1433,59.534636222910216,50.0
1434,61.10681114551083,50.0
1435,59.99903250773994,50.0
1436,54.57140092879257,50.0
1437,58.262383900928796,50.0
1438,60.840750773993825,50.0
1439,62.82894736842107,50.0
1440,57.66737616099071,50.0
1441,55.78560371517028,50.0
1442,59.03637770897833,50.0
1443,59.82972136222911,50.0
1444,58.18982198142414,50.0
1445,56.61764705882352,50.0
1446,54.76973684210526,50.0
1447,58.088235294117645,50.0
1448,59.974845201238395,50.0
1449,58.49941950464397,50.0
1450,60.2263931888545,50.0
1451,55.78560371517028,50.0
1452,57.077205882352935,50.0
1453,58.833204334365334,50.0
1454,60.90363777089783,50.0
1455,56.898219814241486,50.0
1456,58.644543343653254,50.0
1457,59.66524767801858,50.0
1458,57.47871517027864,50.0
1459,60.21188080495356,50.0
1460,58.27689628482971,50.0
1461,57.715750773993804,50.0
1462,57.27070433436532,50.0
1463,57.536764705882355,50.0
1464,61.44543343653251,50.0
1465,55.369582043343655,50.0
1466,59.81037151702786,50.0
1467,61.63893188854489,50.0
1468,56.43866099071207,50.0
1469,55.6985294117647,50.0
1470,54.919698142414866,50.0
1471,56.375773993808046,50.0
1472,58.58165634674922,50.0
1473,58.315595975232206,50.0
1474,59.01219040247677,50.0
1475,57.83668730650155,50.0
1476,58.21884674922601,50.0
1477,58.52360681114551,50.0
1478,60.21671826625387,50.0
1479,55.132546439628484,50.0
1480,58.180147058823536,50.0
1481,59.53947368421053,50.0
1482,58.63003095975233,50.0
1483,55.26315789473684,50.0
1484,57.31907894736842,50.0
1485,58.89125386996904,50.0
1486,59.24438854489164,50.0
1487,57.88022445820433,50.0
1488,60.47794117647057,50.0
1489,56.375773993808046,50.0
1490,59.462074303405586,50.0
1491,61.38738390092879,50.0
1492,53.09597523219814,50.0
1493,56.985294117647044,50.0
1494,58.136609907120736,50.0
1495,61.36803405572755,50.0
1496,59.28792569659443,50.0
1497,54.9390479876161,50.0
1498,52.757352941176464,50.0
1499,59.65557275541796,50.0
1500,58.533281733746136,50.0
1501,58.85739164086688,50.0
1502,57.00948142414861,50.0
1503,60.55534055727554,50.0
1504,55.06482198142414,50.0
1505,58.431695046439636,50.0
1506,58.929953560371516,50.0
1507,58.42685758513932,50.0
1508,59.39434984520124,50.0
1509,60.76335139318885,50.0
1510,60.52147832817337,50.0
1511,59.0218653250774,50.0
1512,59.02670278637771,50.0
1513,60.6424148606811,50.0
1514,61.619582043343655,50.0
1515,55.15189628482972,50.0
1516,58.60584365325077,50.0
1517,59.92163312693498,50.0
1518,58.19465944272446,50.0
1519,60.294117647058826,50.0
1520,59.616873065015476,50.0
1521,56.259674922600624,50.0
1522,55.263157894736835,50.0
1523,55.68401702786378,50.0
1524,57.101393188854495,50.0
1525,59.433049535603715,50.0
1526,59.35565015479876,50.0
1527,61.934017027863774,50.0
1528,56.666021671826634,50.0
1529,61.75503095975232,50.0
1530,58.24787151702785,50.0
1531,59.1766640866873,50.0
1532,54.43595201238389,50.0
1533,57.94794891640868,50.0
1534,55.76141640866873,50.0
1535,56.1000386996904,50.0
1536,60.690789473684205,50.0
1537,61.039086687306494,50.0
1538,55.34539473684211,50.0
1539,54.56656346749225,50.0
1540,60.023219814241486,50.0
1541,53.04760061919505,50.0
1542,56.54024767801858,50.0
1543,56.48703560371517,50.0
1544,56.32256191950464,50.0
1545,55.717879256965944,50.0
1546,58.460719814241486,50.0
1547,59.21052631578947,50.0
1548,56.627321981424146,50.0
1549,58.842879256965944,50.0
1550,55.2921826625387,50.0
1551,58.33494582043343,50.0
1552,55.882352941176464,50.0
1553,57.05301857585138,50.0
1554,56.62248452012384,50.0
1555,59.171826625387,50.0
1556,52.0655959752322,50.0
1557,59.650735294117645,50.0
1558,55.55824303405573,50.0
1559,58.92511609907121,50.0
1560,59.11861455108359,50.0
1561,57.05301857585139,50.0
1562,57.07720588235294,50.0
1563,57.75928792569659,50.0
1564,61.28579721362229,50.0
1565,56.965944272445824,50.0
1566,55.20994582043344,50.0
1567,58.978328173374614,50.0
1568,61.05359907120743,50.0
1569,60.60371517027864,50.0
1570,58.66389318885449,50.0
1571,56.62732198142415,50.0
1572,56.97561919504644,50.0
1573,57.6625386996904,50.0
1574,55.084171826625386,50.0
1575,57.9092492260062,50.0
1576,55.480843653250766,50.0
1577,56.76760835913313,50.0
1578,59.094427244582036,50.0
1579,59.63622291021672,50.0
1580,62.56288699690402,50.0
1581,59.34113777089784,50.0
1582,60.8891253869969,50.0
1583,60.75367647058823,50.0
1584,57.82217492260062,50.0
1585,55.76141640866873,50.0
1586,59.26373839009288,50.0
1587,57.1546052631579,50.0
1588,59.20085139318887,50.0
1589,59.587848297213625,50.0
1590,58.98800309597522,50.0
1591,56.21130030959751,50.0
1592,61.542182662538686,50.0
1593,58.26722136222909,50.0
1594,54.363390092879264,50.0
1595,55.326044891640855,50.0
1596,60.18769349845201,50.0
1597,59.6797600619195,50.0
1598,57.48355263157895,50.0
1599,54.14570433436533,50.0
1600,58.04469814241486,50.0
1601,55.45665634674923,50.0
1602,57.65286377708977,50.0
1603,61.232585139318886,50.0
1604,57.473877708978335,50.0
1605,59.4765866873065,50.0
1606,57.53192724458205,50.0
1607,61.75503095975232,50.0
1608,55.57275541795666,50.0
1609,61.01006191950464,50.0
1610,60.352167182662534,50.0
1611,56.13873839009288,50.0
1612,61.38254643962848,50.0
1613,58.98316563467492,50.0
1614,59.23955108359134,50.0
1615,56.41931114551084,50.0
1616,55.67917956656347,50.0
1617,53.65228328173375,50.0
1618,59.786184210526315,50.0
1619,58.630030959752325,50.0
1620,60.284442724458195,50.0
1621,59.92647058823529,50.0
1622,59.03637770897832,50.0
1623,59.43304953560372,50.0
1624,57.88022445820433,50.0
1625,56.656346749225996,50.0
1626,57.92859907120744,50.0
1627,57.98181114551085,50.0
1628,58.59133126934984,50.0
1629,56.46284829721362,50.0
1630,58.43653250773995,50.0
1631,60.77302631578947,50.0
1632,57.251354489164086,50.0
1633,57.783475232198136,50.0
1634,57.440015479876166,50.0
1635,62.51451238390093,50.0
1636,57.70123839009289,50.0
1637,57.0530185758514,50.0
1638,57.93343653250774,50.0
1639,54.30534055727554,50.0
1640,58.46071981424149,50.0
1641,57.43034055727554,50.0
1642,57.88022445820433,50.0
1643,58.00599845201239,50.0
1644,58.88641640866872,50.0
1645,60.37151702786379,50.0
1646,55.47116873065016,50.0
1647,58.33010835913313,50.0
1648,59.684597523219814,50.0
1649,59.853908668730654,50.0
1650,58.19949690402476,50.0
1651,55.61629256965944,50.0
1652,61.56153250773994,50.0
1653,57.29005417956656,50.0
1654,53.98123065015481,50.0
1655,59.47174922600619,50.0
1656,61.309984520123834,50.0
1657,56.53541021671826,50.0
1658,54.77941176470588,50.0
1659,60.81172600619195,50.0
1660,61.9436919504644,50.0
1661,59.902283281733745,50.0
1662,59.09926470588236,50.0
1663,55.67917956656346,50.0
1664,59.466911764705884,50.0
1665,56.02263931888545,50.0
1666,55.3405572755418,50.0
1667,62.25328947368422,50.0
1668,57.16911764705882,50.0
1669,58.22852167182663,50.0
1670,57.62383900928792,50.0
1671,60.46826625386998,50.0
1672,57.66737616099071,50.0
1673,60.14415634674923,50.0
1674,58.58649380804953,50.0
1675,61.851780185758514,50.0
1676,58.47039473684212,50.0
1677,58.513931888544896,50.0
1678,55.388931888544896,50.0
1679,61.16002321981424,50.0
1680,54.745549535603715,50.0
1681,61.024574303405565,50.0
1682,59.166989164086694,50.0
1683,62.1517027863777,50.0
1684,60.16834365325077,50.0
1685,51.63022445820433,50.0
1686,56.196787925696604,50.0
1687,56.14841331269349,50.0
1688,60.8407507739938,50.0
1689,60.87461300309598,50.0
1690,60.55534055727554,50.0
1691,60.308630030959755,50.0
1692,58.54779411764705,50.0
1693,58.96865325077399,50.0
1694,55.800116099071204,50.0
1695,60.77786377708978,50.0
1696,59.71362229102167,50.0
1697,56.91273219814242,50.0
1698,59.73780959752323,50.0
1699,57.58030185758514,50.0
1700,61.46478328173374,50.0
1701,61.198722910216716,50.0
1702,57.45936532507739,50.0
1703,61.30514705882353,50.0
1704,60.11513157894736,50.0
1705,59.53463622291022,50.0
1706,57.904411764705884,50.0
1707,61.35835913312694,50.0
1708,65.28154024767802,50.0
1709,57.232004643962846,50.0
1710,62.1904024767802,50.0
1711,56.85468266253871,50.0
1712,58.339783281733745,50.0
1713,59.01702786377709,50.0
1714,59.699109907120736,50.0
1715,57.01431888544891,50.0
1716,58.69775541795666,50.0
1717,58.98316563467492,50.0
1718,57.115905572755416,50.0
1719,58.9734907120743,50.0
1720,57.58997678018576,50.0
1721,55.5969427244582,50.0
1722,56.622484520123834,50.0
1723,63.03695820433436,50.0
1724,54.9922600619195,50.0
1725,57.149767801857585,50.0
1726,57.53192724458205,50.0
1727,60.50212848297213,50.0
1728,55.62596749226007,50.0
1729,58.441369969040245,50.0
1730,57.44485294117647,50.0
1731,59.81037151702786,50.0
1732,57.58030185758514,50.0
1733,58.24303405572756,50.0
1734,59.84423374613003,50.0
1735,57.63835139318886,50.0
1736,63.81095201238391,50.0
1737,57.69156346749226,50.0
1738,60.56985294117647,50.0
1739,56.38544891640867,50.0
1740,60.82140092879256,50.0
1741,60.105456656346746,50.0
1742,57.83184984520124,50.0
1743,59.64106037151702,50.0
1744,55.40828173374613,50.0
1745,58.475232198142415,50.0
1746,59.515286377708975,50.0
1747,56.45801083591331,50.0
1748,59.21052631578947,50.0
1749,56.999806501547994,50.0
1750,57.686726006191954,50.0
1751,58.83804179566564,50.0
1752,58.17530959752322,50.0
1753,57.02883126934985,50.0
1754,56.27418730650154,50.0
1755,56.22581269349844,50.0
1756,61.914667182662534,50.0
1757,60.56985294117647,50.0
1758,57.43034055727554,50.0
1759,57.04818111455108,50.0
1760,57.991486068111456,50.0
1761,56.63215944272446,50.0
1762,57.80282507739937,50.0
1763,56.09520123839009,50.0
1764,55.43246904024768,50.0
1765,58.31075851393189,50.0
1766,57.3577786377709,50.0
1767,56.28386222910216,50.0
1768,58.60100619195047,50.0
1769,65.88138544891639,50.0
1770,56.6031346749226,50.0
1771,58.53328173374613,50.0
1772,54.527863777089784,50.0
1773,57.37712848297214,50.0
1774,56.69504643962847,50.0
1775,59.099264705882355,50.0
1776,55.15189628482972,50.0
1777,60.80205108359134,50.0
1778,59.29760061919506,50.0
1779,54.702012383900936,50.0
1780,58.49941950464396,50.0
1781,59.2250386996904,50.0
1782,58.78482972136223,50.0
1783,61.20839783281734,50.0
1784,58.33978328173375,50.0
1785,58.01567337461301,50.0
1786,58.61068111455109,50.0
1787,59.36048761609908,50.0
1788,58.39299535603715,50.0
1789,56.985294117647065,50.0
1790,54.48432662538699,50.0
1791,56.695046439628484,50.0
1792,54.67298761609907,50.0
1793,56.143575851393194,50.0
1794,58.74129256965944,50.0
1795,60.60371517027864,50.0
1796,53.95704334365325,50.0
1797,53.51683436532508,50.0
1798,55.77592879256967,50.0
1799,59.59268575851394,50.0
1800,57.16911764705883,50.0
1801,57.54643962848298,50.0
1802,57.043343653250766,50.0
1803,55.04547213622291,50.0
1804,52.950851393188856,50.0
1805,55.93072755417956,50.0
1806,58.51393188854489,50.0
1807,57.14009287925697,50.0
1808,56.68537151702786,50.0
1809,55.630804953560364,50.0
1810,60.661764705882355,50.0
1811,60.08610681114552,50.0
1812,57.56095201238389,50.0
1813,57.623839009287934,50.0
1814,57.63351393188855,50.0
1815,58.62519349845201,50.0
1816,57.63835139318886,50.0
1817,61.808243034055735,50.0
1818,56.98529411764706,50.0
1819,56.71439628482972,50.0
1820,59.31695046439628,50.0
1821,60.41505417956657,50.0
1822,57.52225232198142,50.0
1823,55.800116099071204,50.0
1824,57.14493034055727,50.0
1825,60.42472910216719,50.0
1826,59.12345201238389,50.0
1827,60.01354489164086,50.0
1828,62.07914086687306,50.0
1829,58.963815789473685,50.0
1830,59.15731424148607,50.0
1831,58.562306501547994,50.0
1832,61.600232198142415,50.0
1833,58.581656346749234,50.0
1834,59.6265479876161,50.0
1835,58.59616873065015,50.0
1836,56.39028637770898,50.0
1837,58.86706656346749,50.0
1838,57.140092879256976,50.0
1839,60.05224458204333,50.0
1840,56.78695820433437,50.0
1841,59.83455882352941,50.0
1842,61.25193498452012,50.0
1843,62.79508513931887,50.0
1844,58.625193498452006,50.0
1845,56.733746130030966,50.0
1846,57.096555727554176,50.0
1847,62.83862229102168,50.0
1848,62.39357585139319,50.0
1849,57.2078173374613,50.0
1850,55.209945820433425,50.0
1851,58.6687306501548,50.0
1852,58.19949690402477,50.0
1853,59.35565015479876,50.0
1854,56.709558823529406,50.0
1855,63.109520123839005,50.0
1856,59.79585913312694,50.0
1857,60.226393188854495,50.0
1858,57.00948142414861,50.0
1859,59.38951238390093,50.0
1860,59.24922600619195,50.0
1861,56.1000386996904,50.0
1862,60.86493808049536,50.0
1863,59.30243808049535,50.0
1864,60.782701238390096,50.0
1865,60.56985294117647,50.0
1866,63.196594427244584,50.0
1867,59.38467492260062,50.0
1868,57.17395510835914,50.0
1869,58.93962848297213,50.0
1870,57.28521671826625,50.0
1871,58.64938080495355,50.0
1872,60.30379256965945,50.0
1873,58.078560371517035,50.0
1874,60.632739938080505,50.0
1875,57.65770123839008,50.0
1876,54.60042569659442,50.0
1877,57.66737616099071,50.0
1878,60.661764705882355,50.0
1879,57.27070433436533,50.0
1880,61.22774767801858,50.0
1881,59.316950464396285,50.0
1882,60.24574303405575,50.0
1883,58.92027863777089,50.0
1884,59.99903250773994,50.0
1885,59.099264705882355,50.0
1886,60.695626934984524,50.0
1887,56.709558823529406,50.0
1888,56.11938854489165,50.0
1889,57.5077399380805,50.0
1890,58.11242260061919,50.0
1891,57.710913312693506,50.0
1892,58.40750773993809,50.0
1893,60.62306501547987,50.0
1894,60.2312306501548,50.0
1895,62.45646284829721,50.0
1896,60.80688854489163,50.0
1897,61.87113003095974,50.0
1898,56.31772445820433,50.0
1899,57.362616099071204,50.0
1900,60.381191950464384,50.0
1901,59.108939628482965,50.0
1902,58.04953560371517,50.0
1903,56.01780185758514,50.0
1904,56.29837461300309,50.0
1905,57.98181114551084,50.0
1906,57.54160216718267,50.0
1907,57.517414860681114,50.0
1908,56.970781733746136,50.0
1909,59.940982972136226,50.0
1910,59.34113777089784,50.0
1911,57.69640092879257,50.0
1912,56.869195046439636,50.0
1913,55.05998452012385,50.0
1914,56.61764705882353,50.0
1915,60.898800309597526,50.0
1916,57.202979876160995,50.0
1917,57.99632352941176,50.0
1918,59.670085139318886,50.0
1919,54.276315789473685,50.0
1920,56.636996904024755,50.0
1921,53.60874613003096,50.0
1922,53.840944272445824,50.0
1923,56.598297213622295,50.0
1924,62.87732198142415,50.0
1925,57.918924148606806,50.0
1926,60.898800309597526,50.0
1927,59.79585913312693,50.0
1928,57.74961300309597,50.0
1929,58.20433436532508,50.0
1930,55.37925696594427,50.0
1931,59.62654798761611,50.0
1932,58.80417956656347,50.0
1933,57.33359133126935,50.0
1934,54.32952786377709,50.0
1935,59.56366099071208,50.0
1936,58.325270897832816,50.0
1937,58.451044891640876,50.0
1938,58.1172600619195,50.0
1939,58.2672213622291,50.0
1940,58.397832817337466,50.0
1941,55.63564241486068,50.0
1942,61.86629256965942,50.0
1943,60.23123065015479,50.0
1944,57.20781733746129,50.0
1945,59.82004643962848,50.0
1946,57.5125773993808,50.0
1947,56.43382352941177,50.0
1948,56.84017027863778,50.0
1949,59.77650928792569,50.0
1950,58.06888544891642,50.0
1951,58.122097523219814,50.0
1952,61.28579721362229,50.0
1953,57.952786377708975,50.0
1954,58.23335913312694,50.0
1955,57.78347523219813,50.0
1956,56.912732198142415,50.0
1957,58.325270897832816,50.0
1958,55.161571207430335,50.0
1959,55.63080495356036,50.0
1960,60.41021671826626,50.0
1961,57.73993808049535,50.0
1962,56.67085913312694,50.0
1963,56.27418730650155,50.0
1964,57.41582817337461,50.0
1965,57.01915634674923,50.0
1966,58.794504643962846,50.0
1967,54.71652476780186,50.0
1968,58.663893188854495,50.0
1969,60.323142414860676,50.0
1970,55.340557275541805,50.0
1971,55.82430340557275,50.0
1972,56.06133900928792,50.0
1973,59.631385448916404,50.0
1974,59.15731424148606,50.0
1975,57.918924148606806,50.0
1976,60.9375,50.0
1977,59.6265479876161,50.0
1978,60.45859133126935,50.0
1979,61.34868421052631,50.0
1980,57.93343653250775,50.0
1981,60.45859133126935,50.0
1982,61.42124613003096,50.0
1983,55.80495356037152,50.0
1984,60.090944272445824,50.0
1985,55.80495356037153,50.0
1986,58.523606811145505,50.0
1987,60.0280572755418,50.0
1988,63.07082043343653,50.0
1989,56.75793343653251,50.0
1990,55.88235294117647,50.0
1991,59.31211300309598,50.0
1992,57.348103715170275,50.0
1993,59.0218653250774,50.0
1994,60.8891253869969,50.0
1995,59.99419504643964,50.0
1996,62.06462848297215,50.0
1997,59.534636222910216,50.0
1998,59.481424148606806,50.0
1999,57.35777863777089,50.0
2000,59.92163312693498,50.0
2001,63.28366873065016,50.0
2002,58.359133126934985,50.0
2003,57.28521671826625,50.0
2004,56.54992260061919,50.0
2005,59.19601393188855,50.0
2006,60.86493808049536,50.0
2007,56.19195046439629,50.0
2008,58.339783281733745,50.0
2009,58.088235294117645,50.0
2010,59.66041021671827,50.0
2011,60.46342879256966,50.0
2012,54.619775541795654,50.0
2013,56.19678792569658,50.0
2014,54.57140092879257,50.0
2015,58.663893188854495,50.0
2016,59.83455882352941,50.0
2017,59.04121517027864,50.0
2018,60.20220588235294,50.0
2019,56.53541021671826,50.0
2020,57.46420278637771,50.0
2021,55.24864551083592,50.0
2022,57.61900154798761,50.0
2023,59.20568885448916,50.0
2024,58.0205108359133,50.0
2025,57.31907894736842,50.0
2026,58.73645510835914,50.0
2027,59.162151702786375,50.0
2028,58.95897832817337,50.0
2029,57.64802631578948,50.0
2030,57.20297987616099,50.0
2031,56.60797213622291,50.0
2032,62.17589009287925,50.0
2033,58.88641640866873,50.0
2034,61.70665634674921,50.0
2035,56.47252321981424,50.0
2036,60.25541795665634,50.0
2037,55.97910216718267,50.0
2038,55.553405572755416,50.0
2039,59.14763931888545,50.0
2040,57.78831269349845,50.0
2041,60.250580495356026,50.0
2042,55.698529411764696,50.0
2043,58.69775541795665,50.0
2044,62.529024767801864,50.0
2045,59.907120743034056,50.0
2046,57.454527863777095,50.0
2047,60.10545665634674,50.0
2048,56.67569659442725,50.0
2049,57.06753095975233,50.0
2050,54.702012383900936,50.0
2051,59.13796439628483,50.0
2052,58.620356037151694,50.0
2053,58.93962848297213,50.0
2054,59.38467492260062,50.0
2055,59.050890092879264,50.0
2056,57.82701238390093,50.0
2057,57.74961300309597,50.0
2058,57.07720588235295,50.0
2059,62.828947368421055,50.0
2060,57.880224458204324,50.0
2061,60.02805727554179,50.0
2062,60.057082043343655,50.0
2063,59.06056501547987,50.0
2064,58.58165634674922,50.0
2065,53.08146284829723,50.0
2066,58.07372291021672,50.0
2067,56.6031346749226,50.0
2068,58.98316563467492,50.0
2069,60.23606811145511,50.0
2070,57.37229102167183,50.0
2071,58.84771671826626,50.0
2072,61.08262383900929,50.0
2073,58.93962848297213,50.0
2074,58.32043343653251,50.0
2075,59.137964396284836,50.0
2076,55.63080495356038,50.0
2077,61.30514705882353,50.0
2078,57.285216718266255,50.0
2079,60.60855263157893,50.0
2080,57.59481424148607,50.0
2081,60.67627708978327,50.0
2082,59.133126934984524,50.0
2083,59.51044891640866,50.0
2084,60.18769349845201,50.0
2085,54.74554953560372,50.0
2086,55.742066563467496,50.0
2087,60.93266253869968,50.0
2088,59.9313080495356,50.0
2089,57.585139318885446,50.0
2090,55.65982972136223,50.0
2091,58.85739164086688,50.0
2092,59.66041021671827,50.0
2093,58.17047213622291,50.0
2094,57.135255417956664,50.0
2095,63.39009287925696,50.0
2096,62.267801857585134,50.0
2097,58.38332043343653,50.0
2098,55.877515479876166,50.0
2099,56.98045665634675,50.0
2100,60.2312306501548,50.0
2101,60.5843653250774,50.0
2102,57.75928792569659,50.0
2103,59.486261609907125,50.0
2104,58.99767801857585,50.0
2105,55.804953560371516,50.0
2106,53.6813080495356,50.0
2107,58.19949690402477,50.0
2108,56.37577399380805,50.0
2109,60.85042569659442,50.0
2110,59.553986068111456,50.0
2111,56.62248452012384,50.0
2112,54.44078947368422,50.0
2113,57.64802631578947,50.0
2114,59.00251547987616,50.0
2115,59.476586687306494,50.0
2116,57.222329721362236,50.0
2117,59.69427244582043,50.0
2118,57.672213622291025,50.0
2119,55.80979102167183,50.0
2120,54.851973684210535,50.0
2121,59.379837461300305,50.0
2122,59.65557275541795,50.0
2123,64.6236455108359,50.0
2124,58.494582043343655,50.0
2125,58.19949690402476,50.0
2126,60.690789473684205,50.0
2127,54.78424922600618,50.0
2128,58.04469814241486,50.0
2129,58.77999226006191,50.0
2130,57.8125,50.0
2131,60.00870743034055,50.0
2132,59.64589783281733,50.0
2133,60.83107585139319,50.0
2134,59.77167182662539,50.0
2135,59.0702399380805,50.0
2136,58.92995356037152,50.0
2137,55.790441176470594,50.0
2138,54.87132352941177,50.0
2139,56.49671052631579,50.0
2140,51.86242260061919,50.0
2141,59.94582043343653,50.0
2142,58.48490712074304,50.0
2143,61.49864551083592,50.0
2144,56.670859133126925,50.0
2145,59.93614551083591,50.0
2146,56.42898606811146,50.0
2147,57.4593653250774,50.0
2148,56.08068885448917,50.0
2149,55.572755417956664,50.0
2150,57.83668730650155,50.0
2151,59.77167182662539,50.0
2152,57.7592879256966,50.0
2153,56.19195046439628,50.0
2154,58.31075851393189,50.0
2155,59.03637770897833,50.0
2156,55.11319659442724,50.0
2157,58.75096749226006,50.0
2158,61.40673374613002,50.0
2159,58.57198142414862,50.0
2160,58.7219427244582,50.0
2161,59.59752321981424,50.0
2162,53.502321981424146,50.0
2163,58.088235294117645,50.0
2164,58.28173374613002,50.0
2165,59.25890092879257,50.0
2166,59.45239938080495,50.0
2167,61.30514705882353,50.0
2168,59.602360681114554,50.0
2169,61.73568111455108,50.0
2170,59.795859133126946,50.0
2171,59.14280185758515,50.0
2172,57.08688080495355,50.0
2173,58.601006191950475,50.0
2174,58.58649380804953,50.0
2175,61.343846749226,50.0
2176,61.01006191950464,50.0
2177,60.56017801857586,50.0
2178,59.46207430340558,50.0
2179,57.72542569659442,50.0
2180,60.70046439628483,50.0
2181,57.88989938080495,50.0
2182,58.7703173374613,50.0
2183,55.567917956656345,50.0
2184,63.467492260061924,50.0
2185,60.221555727554176,50.0
2186,55.272832817337466,50.0
2187,62.06946594427245,50.0
2188,56.390286377708975,50.0
2189,61.48897058823528,50.0
2190,60.13931888544892,50.0
2191,57.96729876160991,50.0
2192,61.600232198142415,50.0
2193,59.82972136222911,50.0
2194,62.12267801857586,50.0
2195,56.69020897832817,50.0
2196,59.95065789473685,50.0
2197,58.22852167182663,50.0
2198,58.17047213622291,50.0
2199,58.20433436532508,50.0
2200,58.842879256965944,50.0
2201,56.77244582043344,50.0
2202,55.742066563467496,50.0
2203,56.090363777089784,50.0
2204,57.70123839009288,50.0
2205,58.06888544891641,50.0
2206,58.62519349845201,50.0
2207,55.56308049535604,50.0
2208,56.19678792569659,50.0
2209,60.19736842105263,50.0
2210,58.88157894736842,50.0
2211,58.58165634674923,50.0
2212,58.484907120743024,50.0
2213,57.856037151702786,50.0
2214,58.3639705882353,50.0
2215,62.886996904024784,50.0
2216,58.85739164086687,50.0
2217,57.74961300309597,50.0
2218,60.44407894736842,50.0
2219,60.85042569659442,50.0
2220,57.00948142414861,50.0
2221,62.57256191950464,50.0
2222,59.084752321981426,50.0
2223,56.57410990712075,50.0
2224,60.003869969040245,50.0
2225,57.25135448916408,50.0
2226,62.04044117647059,50.0
2227,55.142221362229115,50.0
2228,57.08688080495356,50.0
2229,58.775154798761605,50.0
2230,58.678405572755416,50.0
2231,59.210526315789465,50.0
2232,56.927244582043336,50.0
2233,62.07914086687305,50.0
2234,53.79740712074303,50.0
2235,58.19465944272446,50.0
2236,62.708010835913306,50.0
2237,57.37712848297213,50.0
2238,58.30108359133127,50.0
2239,60.84075077399381,50.0
2240,57.454527863777095,50.0
2241,61.37287151702787,50.0
2242,55.54373065015481,50.0
2243,67.73413312693498,50.0
2244,59.815208978328165,50.0
2245,59.19117647058823,50.0
2246,59.52012383900928,50.0
2247,60.73916408668732,50.0
2248,56.77728328173375,50.0
2249,59.113777089783284,50.0
2250,55.26315789473684,50.0
2251,56.23065015479876,50.0
2252,58.494582043343655,50.0
2253,59.97484520123838,50.0
2254,59.02670278637771,50.0
2255,59.302438080495364,50.0
2256,59.936145510835914,50.0
2257,57.79798761609907,50.0
2258,62.954721362229094,50.0
2259,60.124806501547994,50.0
2260,58.475232198142415,50.0
2261,59.65073529411764,50.0
2262,60.42956656346749,50.0
2263,57.39647832817337,50.0
2264,56.5015479876161,50.0
2265,57.27554179566563,50.0
2266,59.142801857585134,50.0
2267,61.93401702786376,50.0
2268,56.622484520123834,50.0
2269,56.075851393188856,50.0
2270,54.10216718266254,50.0
2271,57.14493034055727,50.0
2272,59.81520897832817,50.0
2273,57.3045665634675,50.0
2274,59.82972136222911,50.0
2275,59.616873065015476,50.0
2276,58.378482972136226,50.0
2277,61.74051857585138,50.0
2278,60.16350619195046,50.0
2279,58.18498452012383,50.0
2280,57.83184984520125,50.0
2281,57.64318885448917,50.0
2282,55.91137770897833,50.0
2283,57.381965944272444,50.0
2284,60.289280185758514,50.0
2285,57.652863777089784,50.0
2286,61.88564241486068,50.0
2287,55.70820433436534,50.0
2288,56.327399380804955,50.0
2289,59.10893962848298,50.0
2290,60.8891253869969,50.0
2291,56.53057275541795,50.0
2292,57.232004643962846,50.0
2293,56.99013157894737,50.0
2294,56.370936532507734,50.0
2295,61.75503095975233,50.0
2296,56.14841331269351,50.0
2297,54.8374613003096,50.0
2298,57.42066563467492,50.0
2299,56.62248452012384,50.0
2300,56.903057275541805,50.0
2301,59.0750773993808,50.0
2302,58.17530959752321,50.0
2303,55.47116873065015,50.0
2304,59.684597523219814,50.0
2305,58.23335913312694,50.0
2306,59.52979876160992,50.0
2307,59.350812693498455,50.0
2308,54.5375386996904,50.0
2309,62.10332817337459,50.0
2310,59.81037151702787,50.0
2311,58.79450464396285,50.0
2312,59.52979876160991,50.0
2313,57.691563467492244,50.0
2314,58.20433436532508,50.0
2315,58.56714396284829,50.0
2316,56.60313467492261,50.0
2317,57.111068111455104,50.0
2318,56.41931114551084,50.0
2319,57.02399380804954,50.0
2320,60.835913312693506,50.0
2321,56.99496904024767,50.0
2322,63.02728328173375,50.0
2323,59.16698916408669,50.0
2324,55.954914860681114,50.0
2325,58.93962848297213,50.0
2326,57.22232972136223,50.0
2327,58.68324303405573,50.0
2328,59.307275541795676,50.0
2329,54.30050309597523,50.0
2330,62.92085913312694,50.0
2331,62.00174148606811,50.0
2332,60.400541795665625,50.0
2333,56.80630804953561,50.0
2334,62.05979102167183,50.0
2335,59.660410216718276,50.0
2336,60.55534055727554,50.0
2337,60.83107585139319,50.0
2338,55.5437306501548,50.0
2339,62.3016640866873,50.0
2340,58.30108359133128,50.0
2341,61.571207430340564,50.0
2342,59.05089009287925,50.0
2343,55.62596749226005,50.0
2344,58.33010835913313,50.0
2345,58.37848297213622,50.0
2346,61.20839783281734,50.0
2347,58.4655572755418,50.0
2348,58.460719814241486,50.0
2349,64.32372291021672,50.0
2350,60.028057275541805,50.0
2351,60.27960526315789,50.0
2352,61.75986842105264,50.0
2353,58.33494582043344,50.0
2354,57.0046439628483,50.0
2355,58.20433436532508,50.0
2356,58.60584365325078,50.0
2357,57.498065015479874,50.0
2358,57.44969040247679,50.0
2359,60.119969040247675,50.0
2360,62.37422600619196,50.0
2361,60.144156346749234,50.0
2362,58.83804179566564,50.0
2363,58.325270897832816,50.0
2364,54.87132352941177,50.0
2365,64.37209752321982,50.0
2366,57.95278637770898,50.0
2367,59.510448916408656,50.0
2368,56.58862229102167,50.0
2369,58.9202786377709,50.0
2370,61.90982972136223,50.0
2371,59.544311145510825,50.0
2372,60.584365325077385,50.0
2373,58.42685758513932,50.0
2374,59.878095975232206,50.0
2375,58.460719814241486,50.0
2376,61.580882352941174,50.0
2377,56.95626934984519,50.0
2378,57.54160216718266,50.0
2379,59.766834365325074,50.0
2380,55.127708978328165,50.0
2381,57.309404024767794,50.0
2382,59.78134674922601,50.0
2383,57.81250000000001,50.0
2384,63.54005417956657,50.0
2385,57.169117647058826,50.0
2386,62.233939628482965,50.0
2387,59.79102167182662,50.0
2388,59.02670278637771,50.0
2389,57.23684210526316,50.0
2390,56.12906346749226,50.0
2391,57.60448916408668,50.0
2392,58.70743034055729,50.0
2393,55.040634674922615,50.0
2394,55.505030959752325,50.0
2395,59.72329721362229,50.0
2396,55.790441176470594,50.0
2397,55.858165634674926,50.0
2398,58.79450464396285,50.0
2399,59.52012383900929,50.0
2400,57.54643962848298,50.0
2401,61.140673374613,50.0
2402,57.32875386996904,50.0
2403,60.81172600619195,50.0
2404,56.690208978328165,50.0
2405,58.31075851393189,50.0
2406,56.49187306501548,50.0
2407,58.74129256965944,50.0
2408,60.83591331269349,50.0
2409,59.636222910216716,50.0
2410,60.96652476780185,50.0
2411,57.483552631578945,50.0
2412,55.7420665634675,50.0
2413,54.3827399380805,50.0
2414,57.889899380804955,50.0
2415,55.95007739938082,50.0
2416,58.38332043343652,50.0
2417,59.878095975232185,50.0
2418,58.30108359133127,50.0
2419,59.341137770897824,50.0
2420,57.652863777089784,50.0
2421,59.98935758513932,50.0
2422,59.81037151702786,50.0
2423,54.28599071207431,50.0
2424,56.86435758513932,50.0
2425,56.18711300309597,50.0
2426,59.911958204334354,50.0
2427,55.229295665634666,50.0
2428,57.91892414860681,50.0
2429,56.13390092879257,50.0
2430,56.40479876160992,50.0
2431,56.129063467492266,50.0
2432,58.70259287925696,50.0
2433,60.29895510835913,50.0
2434,58.765479876160995,50.0
2435,63.346555727554176,50.0
2436,58.683243034055735,50.0
2437,58.95897832817337,50.0
2438,61.44543343653251,50.0
2439,59.404024767801864,50.0
2440,59.44756191950465,50.0
2441,56.49671052631579,50.0
2442,59.549148606811144,50.0
2443,56.99013157894736,50.0
2444,55.030959752321984,50.0
2445,61.24226006191951,50.0
2446,56.06617647058823,50.0
2447,61.09229876160992,50.0
2448,57.27554179566563,50.0
2449,58.5671439628483,50.0
2450,55.954914860681114,50.0
2451,59.650735294117645,50.0
2452,60.41021671826625,50.0
2453,57.720588235294116,50.0
2454,55.118034055727556,50.0
2455,58.69291795665635,50.0
2456,60.226393188854495,50.0
2457,55.2921826625387,50.0
2458,58.35429566563467,50.0
2459,61.13099845201238,50.0
2460,56.22581269349845,50.0
2461,52.69930340557275,50.0
2462,56.09036377708977,50.0
2463,56.5499226006192,50.0
2464,55.267995356037154,50.0
2465,57.546439628482986,50.0
2466,55.200270897832816,50.0
2467,58.87190402476781,50.0
2468,58.15595975232198,50.0
2469,61.692143962848284,50.0
2470,58.339783281733745,50.0
2471,56.220975232198136,50.0
2472,60.76335139318886,50.0
2473,56.9611068111455,50.0
2474,57.362616099071204,50.0
2475,60.724651702786375,50.0
2476,60.352167182662534,50.0
2477,58.610681114551085,50.0
2478,59.13312693498452,50.0
2479,60.34732972136223,50.0
2480,55.75174148606811,50.0
2481,59.95549535603715,50.0
2482,58.983165634674926,50.0
2483,54.92453560371517,50.0
2484,60.20220588235294,50.0
2485,59.18150154798761,50.0
2486,56.622484520123834,50.0
2487,56.12422600619195,50.0
2488,61.98239164086687,50.0
2489,56.7579334365325,50.0
2490,58.95414086687306,50.0
2491,58.20917182662539,50.0
2492,59.11861455108359,50.0
2493,57.193304953560364,50.0
2494,60.023219814241486,50.0
2495,59.05089009287926,50.0
2496,60.758513931888544,50.0
2497,57.16428018575851,50.0
2498,56.26451238390093,50.0
2499,59.85874613003096,50.0
2500,58.721942724458195,50.0
2501,56.158088235294116,50.0
2502,56.898219814241486,50.0
2503,57.27554179566563,50.0
2504,58.218846749226,50.0
2505,55.84849071207431,50.0
2506,59.89744582043343,50.0
2507,55.17124613003096,50.0
2508,56.796633126934985,50.0
2509,58.17047213622291,50.0
2510,59.16215170278638,50.0
2511,59.93614551083591,50.0
2512,58.55263157894736,50.0
2513,59.52012383900928,50.0
2514,58.54779411764706,50.0
2515,58.27689628482972,50.0
2516,56.99496904024767,50.0
2517,57.94794891640866,50.0
2518,58.9734907120743,50.0
2519,56.03715170278638,50.0
2520,57.444852941176464,50.0
2521,59.7765092879257,50.0
2522,57.856037151702786,50.0
2523,61.07778637770898,50.0
2524,58.14628482972137,50.0
2525,62.296826625387,50.0
2526,56.33223684210526,50.0
2527,56.11938854489164,50.0
2528,57.918924148606806,50.0
2529,60.29411764705881,50.0
2530,55.37925696594428,50.0
2531,56.7047213622291,50.0
2532,57.37712848297214,50.0
2533,60.666602167182674,50.0
2534,59.200851393188856,50.0
2535,57.94794891640867,50.0
2536,57.12074303405573,50.0
2537,62.67414860681115,50.0
2538,55.79044117647059,50.0
2539,54.880998452012385,50.0
2540,59.65557275541796,50.0
2541,58.85255417956656,50.0
2542,55.775928792569665,50.0
2543,57.14009287925697,50.0
2544,59.196013931888544,50.0
2545,59.660410216718276,50.0
2546,60.41505417956655,50.0
2547,55.505030959752325,50.0
2548,57.02883126934984,50.0
2549,59.19117647058824,50.0
2550,58.659055727554176,50.0
2551,58.692917956656345,50.0
2552,61.64860681114551,50.0
2553,60.77786377708978,50.0
2554,56.75793343653251,50.0
2555,57.08688080495356,50.0
2556,58.736455108359124,50.0
2557,59.66041021671827,50.0
2558,63.44330495356038,50.0
2559,58.76547987616099,50.0
2560,56.25967492260062,50.0
2561,59.2734133126935,50.0
2562,59.34113777089783,50.0
2563,58.74129256965944,50.0
2564,59.805534055727556,50.0
2565,61.70665634674923,50.0
2566,57.502902476780186,50.0
2567,58.63970588235294,50.0
2568,58.73645510835913,50.0
2569,60.342492260061924,50.0
2570,58.0640479876161,50.0
2571,59.200851393188856,50.0
2572,55.23897058823529,50.0
2573,59.52496130030959,50.0
2574,57.32391640866873,50.0
2575,61.890479876160995,50.0
2576,60.82140092879257,50.0
2577,57.62383900928792,50.0
2578,58.27689628482971,50.0
2579,57.768962848297214,50.0
2580,61.029411764705884,50.0
2581,56.61764705882352,50.0
2582,59.0218653250774,50.0
2583,59.249226006191954,50.0
2584,59.166989164086694,50.0
2585,59.578173374612994,50.0
2586,56.225812693498455,50.0
2587,60.482778637770906,50.0
2588,56.3999613003096,50.0
2589,58.75580495356037,50.0
2590,58.50425696594427,50.0
2591,58.373645510835914,50.0
2592,59.345975232198136,50.0
2593,59.099264705882355,50.0
2594,58.97349071207431,50.0
2595,58.107585139318886,50.0
2596,61.2325851393189,50.0
2597,58.33494582043344,50.0
2598,55.959752321981426,50.0
2599,59.43304953560372,50.0
2600,59.5249613003096,50.0
2601,58.59616873065016,50.0
2602,57.84636222910217,50.0
2603,56.49187306501547,50.0
2604,57.21749226006192,50.0
2605,61.02457430340558,50.0
2606,60.695626934984524,50.0
2607,56.985294117647065,50.0
2608,57.95762383900929,50.0
2609,60.26509287925696,50.0
2610,57.604489164086694,50.0
2611,59.99419504643963,50.0
2612,56.73374613003096,50.0
2613,59.10410216718266,50.0
2614,60.86493808049536,50.0
2615,59.40402476780186,50.0
2616,60.02321981424149,50.0
2617,55.3405572755418,50.0
2618,60.02321981424149,50.0
2619,56.390286377708975,50.0
2620,61.34868421052632,50.0
2621,61.71633126934985,50.0
2622,57.07236842105263,50.0
2623,61.47929566563468,50.0
2624,60.19736842105263,50.0
2625,59.849071207430335,50.0
2626,57.97213622291022,50.0
2627,60.54082817337462,50.0
2628,61.522832817337466,50.0
2629,58.542956656346746,50.0
2630,57.101393188854495,50.0
2631,58.131772445820424,50.0
2632,56.59345975232198,50.0
2633,58.58165634674921,50.0
2634,58.9202786377709,50.0
2635,62.86764705882353,50.0
2636,61.05843653250775,50.0
2637,58.170472136222905,50.0
2638,58.23335913312693,50.0
2639,55.18575851393188,50.0
2640,59.20085139318885,50.0
2641,58.683243034055735,50.0
2642,59.297600619195045,50.0
2643,60.27960526315789,50.0
2644,59.43304953560371,50.0
2645,59.56366099071207,50.0
2646,55.50019349845201,50.0
2647,60.41505417956655,50.0
2648,61.08262383900929,50.0
2649,58.98800309597522,50.0
2650,60.294117647058826,50.0
2651,54.55688854489165,50.0
2652,57.589976780185765,50.0
2653,57.58997678018575,50.0
2654,56.62248452012384,50.0
2655,61.329334365325074,50.0
2656,56.06133900928793,50.0
2657,58.189821981424146,50.0
2658,59.73297213622291,50.0
2659,58.276896284829725,50.0
2660,60.787538699690415,50.0
2661,57.95762383900929,50.0
2662,61.25193498452012,50.0
2663,59.72329721362229,50.0
2664,60.932662538699695,50.0
2665,56.70955882352941,50.0
2666,58.23335913312694,50.0
2667,58.03986068111455,50.0
2668,59.30727554179567,50.0
2669,64.74458204334366,50.0
2670,57.01915634674922,50.0
2671,57.37712848297213,50.0
2672,56.58862229102167,50.0
2673,56.49187306501548,50.0
2674,64.58494582043342,50.0
2675,59.30243808049536,50.0
2676,57.986648606811144,50.0
2677,56.68053405572755,50.0
2678,60.41989164086687,50.0
2679,60.35216718266255,50.0
2680,56.690208978328165,50.0
2681,56.93691950464396,50.0
2682,59.55398606811145,50.0
2683,61.503482972136226,50.0
2684,58.6155185758514,50.0
2685,58.276896284829725,50.0
2686,58.40267027863777,50.0
2687,59.46207430340557,50.0
2688,59.55882352941177,50.0
2689,57.96729876160991,50.0
2690,59.01702786377709,50.0
2691,58.64938080495356,50.0
2692,56.172600619195045,50.0
2693,52.83475232198142,50.0
2694,58.33494582043344,50.0
2695,61.38254643962848,50.0
2696,59.03154024767802,50.0
2697,58.95414086687307,50.0
2698,60.16834365325077,50.0
2699,58.74129256965946,50.0
2700,60.75367647058823,50.0
2701,62.18556501547988,50.0
2702,62.253289473684205,50.0
2703,57.93343653250774,50.0
2704,60.51664086687306,50.0
2705,61.97755417956655,50.0
2706,57.03366873065016,50.0
2707,61.25193498452012,50.0
2708,58.34945820433436,50.0
2709,59.036377708978335,50.0
2710,59.49109907120743,50.0
2711,57.27554179566563,50.0
2712,54.866486068111456,50.0
2713,60.57469040247679,50.0
2714,61.76470588235294,50.0
2715,56.11938854489164,50.0
2716,59.0702399380805,50.0
2717,56.772445820433454,50.0
2718,54.80359907120743,50.0
2719,60.090944272445824,50.0
2720,63.65131578947369,50.0
2721,56.670859133126946,50.0
2722,57.536764705882355,50.0
2723,56.58862229102168,50.0
2724,57.32391640866873,50.0
2725,58.37848297213622,50.0
2726,56.79663312693498,50.0
2727,60.090944272445824,50.0
2728,54.84713622291022,50.0
2729,54.315015479876166,50.0
2730,58.823529411764696,50.0
2731,59.73780959752322,50.0
2732,59.34597523219814,50.0
2733,54.16021671826625,50.0
2734,57.909249226006196,50.0
2735,60.574690402476776,50.0
2736,58.731617647058826,50.0
2737,62.16137770897832,50.0
2738,58.649380804953566,50.0
2739,60.16350619195047,50.0
2740,58.20917182662539,50.0
2741,55.04547213622291,50.0
2742,62.54837461300309,50.0
2743,62.77089783281734,50.0
2744,57.02399380804954,50.0
2745,57.444852941176485,50.0
2746,58.949303405572756,50.0
2747,59.61203560371517,50.0
2748,56.06617647058823,50.0
2749,60.21671826625388,50.0
2750,60.207043343653254,50.0
2751,56.78212074303405,50.0
2752,57.348103715170275,50.0
2753,53.61842105263158,50.0
2754,57.56578947368422,50.0
2755,58.50909442724458,50.0
2756,60.028057275541805,50.0
2757,55.89202786377709,50.0
2758,57.66737616099071,50.0
2759,59.50077399380804,50.0
2760,60.21671826625387,50.0
2761,58.82352941176471,50.0
2762,55.93072755417956,50.0
2763,60.74883900928793,50.0
2764,53.58939628482973,50.0
2765,54.677825077399376,50.0
2766,57.575464396284836,50.0
2767,57.39647832817337,50.0
2768,54.73587461300309,50.0
2769,61.9436919504644,50.0
2770,62.46613777089783,50.0
2771,60.129643962848306,50.0
2772,55.24380804953561,50.0
2773,58.14144736842106,50.0
2774,60.83107585139319,50.0
2775,59.53463622291023,50.0
2776,56.06133900928793,50.0
2777,58.33494582043343,50.0
2778,61.06327399380805,50.0
2779,56.57410990712074,50.0
2780,56.38544891640867,50.0
2781,59.74264705882353,50.0
2782,57.749613003095966,50.0
2783,59.41369969040248,50.0
2784,59.01702786377709,50.0
2785,56.88854489164086,50.0
2786,60.511803405572756,50.0
2787,58.7219427244582,50.0
2788,56.59829721362229,50.0
2789,60.613390092879264,50.0
2790,59.54431114551084,50.0
2791,58.45104489164086,50.0
2792,59.03637770897832,50.0
2793,57.95762383900927,50.0
2794,60.0328947368421,50.0
2795,57.52708978328173,50.0
2796,59.38467492260061,50.0
2797,57.82217492260061,50.0
2798,57.70123839009287,50.0
2799,59.27825077399381,50.0
2800,57.367453560371516,50.0
2801,62.64512383900929,50.0
2802,56.91273219814241,50.0
2803,58.64454334365325,50.0
2804,55.91621517027863,50.0
2805,58.12693498452012,50.0
2806,59.83455882352941,50.0
2807,57.72058823529412,50.0
2808,57.83668730650155,50.0
2809,58.82352941176471,50.0
2810,62.13235294117647,50.0
2811,56.75793343653251,50.0
2812,59.26373839009288,50.0
2813,61.17453560371516,50.0
2814,60.45375386996904,50.0
2815,60.187693498452006,50.0
2816,56.680534055727556,50.0
2817,60.86493808049536,50.0
2818,59.27825077399381,50.0
2819,58.475232198142415,50.0
2820,60.323142414860676,50.0
2821,58.15112229102167,50.0
2822,58.170472136222905,50.0
2823,61.469620743034056,50.0
2824,61.43092105263158,50.0
2825,58.98316563467491,50.0
2826,55.94523993808049,50.0
2827,58.85255417956656,50.0
2828,58.93962848297214,50.0
2829,56.317724458204324,50.0
2830,58.62519349845201,50.0
2831,58.47523219814242,50.0
2832,58.015673374612994,50.0
2833,57.00948142414861,50.0
2834,61.55185758513932,50.0
2835,62.05495356037151,50.0
2836,56.87403250773994,50.0
2837,61.15034829721361,50.0
2838,60.41505417956657,50.0
2839,58.38332043343652,50.0
2840,57.81250000000001,50.0
2841,62.51934984520125,50.0
2842,60.18285603715171,50.0
2843,60.3811919504644,50.0
2844,59.83939628482972,50.0
2845,57.78831269349845,50.0
2846,59.03637770897833,50.0
2847,59.80069659442724,50.0
2848,61.14551083591332,50.0
2849,60.94717492260061,50.0
2850,60.06675696594427,50.0
2851,60.1296439628483,50.0
2852,56.88854489164087,50.0
2853,58.9734907120743,50.0
2854,55.703366873065015,50.0
2855,60.47310371517028,50.0
2856,57.91892414860681,50.0
2857,57.062693498452006,50.0
2858,57.2561919504644,50.0
2859,61.363196594427244,50.0
2860,60.274767801857585,50.0
2861,58.52844427244582,50.0
2862,56.94659442724457,50.0
2863,59.78134674922601,50.0
2864,57.38680340557275,50.0
2865,57.149767801857585,50.0
2866,58.6203560371517,50.0
2867,58.46555727554179,50.0
2868,58.659055727554176,50.0
2869,56.76277089783282,50.0
2870,57.604489164086694,50.0
2871,57.13525541795666,50.0
2872,57.52225232198142,50.0
2873,59.49109907120742,50.0
2874,59.466911764705884,50.0
2875,58.26722136222911,50.0
2876,62.39357585139319,50.0
2877,58.610681114551085,50.0
2878,58.73645510835913,50.0
2879,56.59829721362229,50.0
2880,57.89473684210526,50.0
2881,62.741873065015476,50.0
2882,59.529798761609904,50.0
2883,59.09442724458205,50.0
2884,56.02747678018576,50.0
2885,58.77999226006192,50.0
2886,55.81946594427245,50.0
2887,59.72813467492261,50.0
2888,55.67434210526317,50.0
2889,61.929179566563484,50.0
2890,54.24245356037152,50.0
2891,60.511803405572756,50.0
2892,55.94040247678019,50.0
2893,55.68885448916408,50.0
2894,53.42976006191951,50.0
2895,58.92995356037152,50.0
2896,61.846942724458195,50.0
2897,54.85197368421053,50.0
2898,59.05572755417957,50.0
2899,55.587267801857585,50.0
2900,59.87325851393189,50.0
2901,62.36938854489164,50.0
2902,58.48006965944272,50.0
2903,59.220201238390096,50.0
2904,55.80979102167183,50.0
2905,57.89473684210526,50.0
2906,59.25890092879257,50.0
2907,53.802244582043336,50.0
2908,57.444852941176464,50.0
2909,57.952786377708975,50.0
2910,57.33359133126935,50.0
2911,57.54643962848298,50.0
2912,58.98316563467492,50.0
2913,57.067530959752325,50.0
2914,59.82972136222911,50.0
2915,57.33359133126935,50.0
2916,59.858746130030966,50.0
2917,55.82430340557275,50.0
2918,57.793150154798774,50.0
2919,57.01431888544891,50.0
2920,65.30089009287929,50.0
2921,59.887770897832816,50.0
2922,53.758707430340564,50.0
2923,57.536764705882355,50.0
2924,60.91331269349844,50.0
2925,61.87596749226006,50.0
2926,60.076431888544896,50.0
2927,58.33494582043344,50.0
2928,58.05921052631579,50.0
2929,59.99419504643963,50.0
2930,56.235487616099064,50.0
2931,59.40886222910216,50.0
2932,55.82914086687306,50.0
2933,59.16215170278638,50.0
2934,56.66602167182663,50.0
2935,58.13177244582044,50.0
2936,60.55534055727554,50.0
2937,53.25561145510836,50.0
2938,57.39647832817337,50.0
2939,57.507739938080505,50.0
2940,56.767608359133135,50.0
2941,59.58784829721362,50.0
2942,61.77921826625387,50.0
2943,57.98181114551083,50.0
2944,58.58649380804954,50.0
2945,58.784829721362215,50.0
2946,57.29972910216718,50.0
2947,55.50503095975233,50.0
2948,57.415828173374614,50.0
2949,57.0094814241486,50.0
2950,58.54779411764706,50.0
2951,57.79315015479876,50.0
2952,60.255417956656345,50.0
2953,59.14280185758514,50.0
2954,56.85468266253869,50.0
2955,54.62461300309598,50.0
2956,58.257546439628484,50.0
2957,57.82701238390093,50.0
2958,60.0812693498452,50.0
2959,57.73026315789473,50.0
2960,62.630611455108344,50.0
2961,58.38332043343653,50.0
2962,57.48839009287925,50.0
2963,57.062693498452006,50.0
2964,58.55263157894736,50.0
2965,54.66331269349845,50.0
2966,59.62171052631578,50.0
2967,57.54160216718266,50.0
2968,58.03986068111454,50.0
2969,58.528444272445824,50.0
2970,56.53541021671827,50.0
2971,56.3515866873065,50.0
2972,56.51122291021671,50.0
2973,60.94717492260061,50.0
2974,60.55534055727554,50.0
2975,60.43924148606811,50.0
2976,60.3328173374613,50.0
2977,59.800696594427244,50.0
2978,55.07449690402477,50.0
2979,59.89744582043344,50.0
2980,58.65421826625387,50.0
2981,59.36532507739939,50.0
2982,57.98181114551084,50.0
2983,60.67627708978327,50.0
2984,57.39647832817337,50.0
2985,55.64047987616098,50.0
2986,55.1905959752322,50.0
2987,57.74477554179566,50.0
2988,60.39570433436532,50.0
2989,56.18711300309598,50.0
2990,58.857391640866865,50.0
2991,60.7875386996904,50.0
2992,54.08281733746131,50.0
2993,58.19465944272446,50.0
2994,57.86571207430341,50.0
2995,57.31424148606811,50.0
2996,58.40267027863777,50.0
2997,58.267221362229094,50.0
2998,57.62383900928793,50.0
2999,58.98316563467492,50.0
3000,56.622484520123834,50.0
3001,59.92647058823529,50.0
3002,58.00599845201238,50.0
3003,55.906540247678016,50.0
3004,55.59694272445821,50.0
3005,59.887770897832816,50.0
3006,57.93343653250775,50.0
3007,57.07236842105264,50.0
3008,55.93556501547987,50.0
3009,54.160216718266255,50.0
3010,63.414280185758514,50.0
3011,57.822174922600624,50.0
3012,59.534636222910216,50.0
3013,57.246517027863774,50.0
3014,59.30727554179566,50.0
3015,60.72465170278639,50.0
3016,60.3811919504644,50.0
3017,61.600232198142415,50.0
3018,56.994969040247675,50.0
3019,54.629450464396285,50.0
3020,61.12616099071209,50.0
3021,56.23548761609907,50.0
3022,59.50561145510836,50.0
3023,56.83049535603715,50.0
3024,54.57140092879257,50.0
3025,58.238196594427244,50.0
3026,56.68053405572755,50.0
3027,60.729489164086694,50.0
3028,58.286571207430335,50.0
3029,63.66582817337462,50.0
3030,61.179373065015476,50.0
3031,55.69369195046439,50.0
3032,58.66873065015481,50.0
3033,54.5859133126935,50.0
3034,58.96865325077399,50.0
3035,56.09036377708978,50.0
3036,57.4593653250774,50.0
3037,60.976199690402474,50.0
3038,60.46342879256966,50.0
3039,57.82217492260061,50.0
3040,61.237422600619205,50.0
3041,58.533281733746136,50.0
3042,58.46555727554179,50.0
3043,62.08397832817337,50.0
3044,62.05979102167183,50.0
3045,58.189821981424146,50.0
3046,60.274767801857585,50.0
3047,57.294891640866865,50.0
3048,60.47310371517028,50.0
3049,57.57062693498452,50.0
3050,59.15247678018576,50.0
3051,52.76702786377709,50.0
3052,55.79044117647059,50.0
3053,56.811145510835914,50.0
3054,59.79585913312694,50.0
3055,59.30727554179567,50.0
3056,59.09442724458204,50.0
3057,61.266447368421055,50.0
3058,60.77302631578947,50.0
3059,55.427631578947356,50.0
3060,61.01006191950463,50.0
3061,58.87674148606811,50.0
3062,58.552631578947356,50.0
3063,60.265092879256976,50.0
3064,58.24787151702786,50.0
3065,56.91273219814241,50.0
3066,59.90712074303406,50.0
3067,57.14009287925697,50.0
3068,56.9562693498452,50.0
3069,62.88215944272446,50.0
3070,57.319078947368425,50.0
3071,58.533281733746136,50.0
3072,58.70743034055727,50.0
3073,61.42124613003096,50.0
3074,61.09713622291022,50.0
3075,54.789086687306494,50.0
3076,54.36339009287926,50.0
3077,57.37712848297214,50.0
3078,56.206462848297214,50.0
3079,57.0578560371517,50.0
3080,57.23200464396285,50.0
3081,61.84694272445821,50.0
3082,61.28095975232197,50.0
3083,57.55611455108358,50.0
3084,56.36126160990712,50.0
3085,58.557469040247675,50.0
3086,58.102747678018574,50.0
3087,57.80766253869968,50.0
3088,55.804953560371516,50.0
3089,60.11029411764705,50.0
3090,56.39028637770897,50.0
3091,53.53618421052632,50.0
3092,59.84907120743034,50.0
3093,57.531927244582036,50.0
3094,58.799342105263165,50.0
3095,55.42279411764706,50.0
3096,61.15518575851394,50.0
3097,57.014318885448915,50.0
3098,60.782701238390096,50.0
3099,57.880224458204324,50.0
3100,58.509094427244584,50.0
3101,59.52979876160991,50.0
3102,57.48839009287926,50.0
3103,56.05650154798762,50.0
3104,62.32585139318886,50.0
3105,61.18421052631578,50.0
3106,60.87461300309598,50.0
3107,60.395704334365334,50.0
3108,59.815208978328165,50.0
3109,56.68053405572755,50.0
3110,55.84849071207431,50.0
3111,57.62383900928792,50.0
3112,56.62248452012384,50.0
3113,63.448142414860676,50.0
3114,57.92859907120743,50.0
3115,56.63699690402476,50.0
3116,56.31772445820434,50.0
3117,56.356424148606806,50.0
3118,60.77302631578949,50.0
3119,56.15325077399381,50.0
3120,62.756385448916426,50.0
3121,57.96729876160991,50.0
3122,60.72465170278639,50.0
3123,56.52089783281733,50.0
3124,55.00677244582043,50.0
3125,60.211880804953566,50.0
3126,59.24438854489164,50.0
3127,60.21671826625386,50.0
3128,57.67705108359134,50.0
3129,57.49322755417956,50.0
3130,56.50638544891641,50.0
3131,56.743421052631575,50.0
3132,57.75928792569659,50.0
3133,60.51180340557274,50.0
3134,57.11590557275542,50.0
3135,59.55398606811145,50.0
3136,60.3328173374613,50.0
3137,57.0094814241486,50.0
3138,58.581656346749234,50.0
3139,59.418537151702786,50.0
3140,59.181501547987615,50.0
3141,61.61474458204334,50.0
3142,60.20220588235295,50.0
3143,59.83455882352942,50.0
3144,60.44891640866874,50.0
3145,60.690789473684205,50.0
3146,62.51451238390092,50.0
3147,58.644543343653254,50.0
3148,61.46962074303404,50.0
3149,57.285216718266255,50.0
3150,56.24032507739938,50.0
3151,56.656346749226,50.0
3152,60.531153250774,50.0
3153,56.33707430340558,50.0
3154,58.896091331269346,50.0
3155,56.975619195046434,50.0
3156,60.17801857585138,50.0
3157,57.652863777089784,50.0
3158,58.71226780185758,50.0
3159,56.81114551083592,50.0
3160,59.22020123839009,50.0
3161,60.187693498452006,50.0
3162,56.845007739938076,50.0
3163,59.66041021671827,50.0
3164,56.40963622291022,50.0
3165,59.07023993808049,50.0
3166,60.11029411764706,50.0
3167,56.96110681114551,50.0
3168,59.11861455108359,50.0
3169,56.70472136222911,50.0
3170,60.05224458204334,50.0
3171,60.153831269349844,50.0
3172,57.37712848297214,50.0
3173,56.3515866873065,50.0
3174,60.361842105263165,50.0
3175,62.558049535603715,50.0
3176,59.85390866873065,50.0
3177,54.20375386996904,50.0
3178,56.78212074303405,50.0
3179,59.60236068111455,50.0
3180,56.936919504643974,50.0
3181,56.762770897832816,50.0
3182,59.36532507739938,50.0
3183,60.79721362229103,50.0
3184,58.533281733746136,50.0
3185,59.75232198142414,50.0
3186,58.39783281733746,50.0
3187,59.49109907120743,50.0
3188,59.655572755417964,50.0
3189,58.160797213622295,50.0
3190,60.82140092879257,50.0
3191,56.49671052631579,50.0
3192,60.816563467492266,50.0
3193,59.9313080495356,50.0
3194,61.169698142414866,50.0
3195,60.4295665634675,50.0
3196,56.63215944272446,50.0
3197,58.48974458204334,50.0
3198,61.41157120743034,50.0
3199,59.365325077399376,50.0
3200,59.6797600619195,50.0
3201,58.19465944272446,50.0
3202,58.97832817337461,50.0
3203,55.19059597523219,50.0
3204,57.65286377708978,50.0
3205,56.77244582043344,50.0
3206,60.43440402476781,50.0
3207,56.71923374613003,50.0
3208,58.77031733746131,50.0
3209,59.30727554179567,50.0
3210,61.73084365325077,50.0
3211,58.99767801857585,50.0
3212,59.85874613003096,50.0
3213,59.14763931888545,50.0
3214,58.19949690402477,50.0
3215,59.15247678018575,50.0
3216,61.11164860681114,50.0
3217,57.59481424148606,50.0
3218,59.40886222910216,50.0
3219,54.27147832817337,50.0
3220,58.136609907120736,50.0
3221,60.2747678018576,50.0
3222,57.84152476780186,50.0
3223,57.686726006191954,50.0
3224,60.3328173374613,50.0
3225,56.74342105263159,50.0
3226,56.27902476780186,50.0
3227,58.305921052631575,50.0
3228,56.172600619195045,50.0
3229,59.645897832817326,50.0
3230,56.12422600619195,50.0
3231,58.122097523219814,50.0
3232,61.513157894736835,50.0
3233,60.12480650154799,50.0
3234,58.813854489164086,50.0
3235,56.02747678018576,50.0
3236,61.547020123839005,50.0
3237,58.87674148606811,50.0
3238,55.37441950464396,50.0
3239,59.907120743034056,50.0
3240,57.048181114551085,50.0
3241,57.65286377708978,50.0
3242,58.9734907120743,50.0
3243,57.20297987616098,50.0
3244,56.08068885448916,50.0
3245,58.397832817337466,50.0
3246,59.12345201238389,50.0
3247,58.16079721362229,50.0
3248,58.92027863777089,50.0
3249,57.77863777089783,50.0
3250,56.5547600619195,50.0
3251,58.76064241486068,50.0
3252,58.18982198142414,50.0
3253,59.166989164086694,50.0
3254,61.22774767801857,50.0
3255,57.19814241486068,50.0
3256,59.20085139318886,50.0
3257,61.169698142414866,50.0
3258,56.81598297213622,50.0
3259,55.73722910216719,50.0
3260,60.77302631578947,50.0
3261,55.04063467492261,50.0
3262,58.45104489164087,50.0
3263,62.80476006191951,50.0
3264,58.19465944272445,50.0
3265,59.31211300309597,50.0
3266,54.61977554179567,50.0
3267,58.38815789473685,50.0
3268,55.73722910216719,50.0
3269,59.10893962848298,50.0
3270,58.305921052631575,50.0
3271,58.57198142414861,50.0
3272,56.48219814241486,50.0
3273,56.8014705882353,50.0
3274,58.107585139318886,50.0
3275,61.169698142414866,50.0
3276,58.21884674922601,50.0
3277,56.73858359133126,50.0
3278,60.62306501547987,50.0
3279,56.38544891640866,50.0
3280,58.30108359133127,50.0
3281,57.517414860681114,50.0
3282,60.08126934984521,50.0
3283,59.37983746130031,50.0
3284,58.25270897832817,50.0
3285,55.654992260061924,50.0
3286,60.594040247678016,50.0
3287,59.220201238390096,50.0
3288,60.390866873065015,50.0
3289,59.64106037151703,50.0
3290,57.9624613003096,50.0
3291,59.00251547987616,50.0
3292,59.568498452012385,50.0
3293,60.023219814241486,50.0
3294,59.820046439628484,50.0
3295,60.41505417956657,50.0
3296,59.955495356037154,50.0
3297,56.78212074303405,50.0
3298,54.92453560371517,50.0
3299,58.03986068111455,50.0
3300,61.12616099071207,50.0
3301,58.93479102167182,50.0
3302,56.74825851393189,50.0
3303,59.80069659442725,50.0
3304,59.92163312693498,50.0
3305,58.9202786377709,50.0
3306,59.51044891640866,50.0
3307,57.45452786377709,50.0
3308,62.108165634674926,50.0
3309,59.13796439628483,50.0
3310,57.68188854489164,50.0
3311,61.029411764705884,50.0
3312,58.54779411764706,50.0
3313,59.171826625387,50.0
3314,59.47174922600619,50.0
3315,60.966524767801864,50.0
3316,57.232004643962846,50.0
3317,58.078560371517035,50.0
3318,59.278250773993804,50.0
3319,58.40750773993808,50.0
3320,56.511222910216716,50.0
3321,54.50367647058823,50.0
3322,60.419891640866865,50.0
3323,58.24787151702786,50.0
3324,59.17666408668731,50.0
3325,58.446207430340564,50.0
3326,58.475232198142415,50.0
3327,59.51044891640866,50.0
3328,60.01838235294117,50.0
3329,56.699883900928796,50.0
3330,55.38409442724459,50.0
3331,55.17608359133128,50.0
3332,61.43092105263158,50.0
3333,63.92221362229102,50.0
3334,57.111068111455104,50.0
3335,56.24032507739939,50.0
3336,58.08339783281733,50.0
3337,57.73026315789474,50.0
3338,58.53328173374613,50.0
3339,58.35429566563467,50.0
3340,60.46826625386998,50.0
3341,58.446207430340564,50.0
3342,57.21265479876162,50.0
3343,58.45104489164086,50.0
3344,62.4419504643963,50.0
3345,56.08552631578947,50.0
3346,58.88157894736843,50.0
3347,58.03018575851394,50.0
3348,56.651509287925684,50.0
3349,58.765479876160995,50.0
3350,56.482198142414866,50.0
3351,54.49400154798761,50.0
3352,58.692917956656345,50.0
3353,57.39647832817337,50.0
3354,59.79585913312693,50.0
3355,58.98800309597522,50.0
3356,62.18556501547988,50.0
3357,60.80205108359132,50.0
3358,56.3999613003096,50.0
3359,58.320433436532504,50.0
3360,59.268575851393194,50.0
3361,59.984520123839005,50.0
3362,59.66041021671826,50.0
3363,54.880998452012385,50.0
3364,58.82352941176471,50.0
3365,58.465557275541805,50.0
3366,56.92724458204334,50.0
3367,57.48355263157895,50.0
3368,63.52070433436532,50.0
3369,58.968653250774,50.0
3370,57.923761609907125,50.0
3371,55.3937693498452,50.0
3372,63.74322755417957,50.0
3373,60.55050309597523,50.0
3374,54.24729102167183,50.0
3375,56.70472136222911,50.0
3376,56.6031346749226,50.0
3377,56.641834365325074,50.0
3378,59.73297213622292,50.0
3379,58.54779411764706,50.0
3380,55.29218266253869,50.0
3381,58.63486842105263,50.0
3382,59.96033281733746,50.0
3383,59.52979876160991,50.0
3384,60.26993034055728,50.0
3385,57.79315015479876,50.0
3386,58.18498452012385,50.0
3387,58.49941950464397,50.0
3388,58.054373065015476,50.0
3389,56.78695820433437,50.0
3390,55.89202786377709,50.0
3391,58.5719814241486,50.0
3392,57.672213622291025,50.0
3393,59.51044891640866,50.0
3394,59.002515479876166,50.0
3395,60.845588235294116,50.0
3396,61.70665634674923,50.0
3397,56.85468266253869,50.0
3398,58.50909442724458,50.0
3399,61.37287151702787,50.0
3400,61.33417182662539,50.0
3401,61.7985681114551,50.0
3402,58.5187693498452,50.0
3403,56.617647058823536,50.0
3404,55.97426470588235,50.0
3405,57.88022445820433,50.0
3406,59.32662538699691,50.0
3407,56.090363777089784,50.0
3408,58.40750773993808,50.0
3409,58.69775541795666,50.0
3410,56.859520123839005,50.0
3411,57.7641253869969,50.0
3412,62.24845201238389,50.0
3413,58.76064241486068,50.0
3414,57.39164086687306,50.0
3415,61.60023219814243,50.0
3416,59.858746130030966,50.0
3417,59.70394736842105,50.0
3418,59.549148606811144,50.0
3419,57.81250000000001,50.0
3420,58.53328173374613,50.0
3421,56.999806501547994,50.0
3422,57.90924922600619,50.0
3423,57.08688080495356,50.0
3424,59.62171052631579,50.0
3425,57.03850619195047,50.0
3426,59.96517027863777,50.0
3427,56.699883900928796,50.0
3428,57.135255417956664,50.0
3429,59.046052631578945,50.0
3430,58.55263157894736,50.0
3431,61.687306501547994,50.0
3432,58.89125386996904,50.0
3433,54.63912538699691,50.0
3434,58.39783281733746,50.0
3435,54.140866873065015,50.0
3436,57.52708978328173,50.0
3437,57.75445046439627,50.0
3438,54.56656346749226,50.0
3439,57.488390092879264,50.0
3440,55.369582043343655,50.0
3441,56.516060371517035,50.0
3442,56.18711300309598,50.0
3443,54.86648606811145,50.0
3444,54.61977554179566,50.0
3445,60.61822755417957,50.0
3446,57.304566563467496,50.0
3447,54.629450464396285,50.0
3448,60.3860294117647,50.0
3449,56.71923374613002,50.0
3450,59.82004643962848,50.0
3451,55.843653250774,50.0
3452,58.929953560371516,50.0
3453,58.08823529411765,50.0
3454,61.45994582043345,50.0
3455,55.31153250773994,50.0
3456,57.70123839009288,50.0
3457,59.09442724458205,50.0
3458,61.343846749226,50.0
3459,55.31153250773994,50.0
3460,57.202979876160995,50.0
3461,56.52573529411765,50.0
3462,57.575464396284836,50.0
3463,57.86571207430341,50.0
3464,58.26238390092879,50.0
3465,59.703947368421055,50.0
3466,57.08688080495355,50.0
3467,61.50832043343653,50.0
3468,57.78347523219814,50.0
3469,59.12828947368422,50.0
3470,58.98800309597523,50.0
3471,60.44407894736842,50.0
3472,59.012190402476776,50.0
3473,58.388157894736835,50.0
3474,58.90092879256967,50.0
3475,59.05089009287926,50.0
3476,58.78966718266254,50.0
3477,57.270704334365334,50.0
3478,56.32739938080495,50.0
3479,59.549148606811144,50.0
3480,56.41931114551084,50.0
3481,57.01915634674922,50.0
3482,59.35081269349845,50.0
3483,60.41989164086687,50.0
3484,59.616873065015476,50.0
3485,57.79315015479876,50.0
3486,56.912732198142415,50.0
3487,61.73568111455108,50.0
3488,60.06191950464397,50.0
3489,60.6811145510836,50.0
3490,58.14628482972137,50.0
3491,58.547794117647065,50.0
3492,57.39647832817337,50.0
3493,56.90789473684211,50.0
3494,56.26934984520124,50.0
3495,60.3860294117647,50.0
3496,57.25135448916409,50.0
3497,59.781346749225996,50.0
3498,56.08552631578948,50.0
3499,59.49109907120743,50.0
3500,59.22503869969041,50.0
3501,60.41505417956657,50.0
3502,60.294117647058826,50.0
3503,59.10410216718267,50.0
3504,56.90305727554179,50.0
3505,59.78134674922601,50.0
3506,56.78212074303405,50.0
3507,57.02399380804954,50.0
3508,58.988003095975245,50.0
3509,56.554760061919495,50.0
3510,57.89473684210525,50.0
3511,56.19195046439628,50.0
3512,60.98587461300309,50.0
3513,60.41989164086687,50.0
3514,58.30592105263157,50.0
3515,61.59055727554179,50.0
3516,55.050309597523224,50.0
3517,59.71845975232198,50.0
3518,56.390286377708975,50.0
3519,58.15595975232198,50.0
3520,56.38544891640867,50.0
3521,58.044698142414866,50.0
3522,59.350812693498455,50.0
3523,56.695046439628484,50.0
3524,58.67840557275542,50.0
3525,55.72271671826625,50.0
3526,57.352941176470594,50.0
3527,59.70878482972137,50.0
3528,59.38467492260061,50.0
3529,55.85816563467492,50.0
3530,57.923761609907125,50.0
3531,57.03366873065016,50.0
3532,59.53947368421053,50.0
3533,58.94930340557275,50.0
3534,58.23335913312694,50.0
3535,56.283862229102155,50.0
3536,55.70820433436532,50.0
3537,57.115905572755416,50.0
3538,61.169698142414866,50.0
3539,58.83320433436533,50.0
3540,60.00386996904024,50.0
3541,58.4655572755418,50.0
3542,59.66041021671826,50.0
3543,56.60797213622291,50.0
3544,57.80282507739938,50.0
3545,54.93904798761609,50.0
3546,55.53405572755417,50.0
3547,60.80688854489164,50.0
3548,56.864357585139324,50.0
3549,56.16292569659442,50.0
3550,58.49941950464397,50.0
3551,58.98800309597523,50.0
3552,59.20568885448917,50.0
3553,60.72948916408671,50.0
3554,59.08958978328174,50.0
3555,57.24167956656347,50.0
3556,56.84984520123838,50.0
3557,58.596168730650156,50.0
3558,55.78076625386997,50.0
3559,59.92163312693498,50.0
3560,59.684597523219814,50.0
3561,58.9202786377709,50.0
3562,56.33707430340558,50.0
3563,62.853134674922615,50.0
3564,57.35294117647059,50.0
3565,52.16718266253869,50.0
3566,59.03154024767802,50.0
3567,58.26238390092879,50.0
3568,55.18092105263158,50.0
3569,57.59965170278639,50.0
3570,59.59752321981425,50.0
3571,57.70123839009289,50.0
3572,59.7765092879257,50.0
3573,57.23684210526316,50.0
3574,60.289280185758514,50.0
3575,60.255417956656345,50.0
3576,60.574690402476776,50.0
3577,54.8374613003096,50.0
3578,58.08339783281734,50.0
3579,59.69427244582044,50.0
3580,56.28386222910216,50.0
3581,57.48839009287926,50.0
3582,59.133126934984524,50.0
3583,60.71497678018576,50.0
3584,56.617647058823536,50.0
3585,56.588622291021665,50.0
3586,61.837267801857585,50.0
3587,59.326625386996895,50.0
3588,55.81462848297213,50.0
3589,59.46207430340557,50.0
3590,58.52360681114552,50.0
3591,57.5125773993808,50.0
3592,57.77863777089783,50.0
3593,58.678405572755416,50.0
3594,60.782701238390096,50.0
3595,60.250580495356026,50.0
3596,57.972136222910216,50.0
3597,55.15673374613003,50.0
3598,56.31772445820433,50.0
3599,58.973490712074295,50.0
3600,57.367453560371516,50.0
3601,58.28173374613004,50.0
3602,58.746130030959755,50.0
3603,56.172600619195045,50.0
3604,56.45801083591331,50.0
3605,56.13390092879257,50.0
3606,60.01354489164086,50.0
3607,54.68266253869969,50.0
3608,56.835332817337466,50.0
3609,57.130417956656345,50.0
3610,61.01973684210527,50.0
3611,58.5187693498452,50.0
3612,57.92376160990712,50.0
3613,59.065402476780186,50.0
3614,56.87403250773994,50.0
3615,58.005998452012385,50.0
3616,58.32043343653251,50.0
3617,57.212654798761605,50.0
3618,59.83939628482972,50.0
3619,56.53541021671827,50.0
3620,57.56578947368421,50.0
3621,57.34326625386997,50.0
3622,57.77863777089784,50.0
3623,58.58649380804953,50.0
3624,61.13099845201238,50.0
3625,54.397252321981426,50.0
3626,58.76547987616099,50.0
3627,61.3390092879257,50.0
3628,58.305921052631575,50.0
3629,61.20839783281734,50.0
3630,57.24651702786379,50.0
3631,58.900928792569665,50.0
3632,56.87886996904026,50.0
3633,59.12345201238389,50.0
3634,58.23819659442724,50.0
3635,56.017801857585134,50.0
3636,58.62035603715171,50.0
3637,58.828366873065015,50.0
3638,59.00251547987615,50.0
3639,56.61280959752323,50.0
3640,58.16563467492261,50.0
3641,60.08126934984519,50.0
3642,60.932662538699695,50.0
3643,55.514705882352935,50.0
3644,57.59481424148606,50.0
3645,58.344620743034056,50.0
3646,60.879450464396285,50.0
3647,59.71362229102167,50.0
3648,56.88370743034056,50.0
3649,59.747484520123834,50.0
3650,53.88448142414861,50.0
3651,58.73645510835914,50.0
3652,54.46497678018575,50.0
3653,59.21052631578947,50.0
3654,58.19465944272446,50.0
3655,59.74264705882353,50.0
3656,56.72890866873065,50.0
3657,58.06888544891641,50.0
3658,55.785603715170275,50.0
3659,61.01489938080496,50.0
3660,58.49941950464396,50.0
3661,58.963815789473685,50.0
3662,59.76683436532508,50.0
3663,59.45239938080494,50.0
3664,57.04334365325077,50.0
3665,60.97619969040249,50.0
3666,58.48006965944273,50.0
3667,61.005224458204324,50.0
3668,56.767608359133135,50.0
3669,55.25348297213621,50.0
3670,58.963815789473685,50.0
3671,57.43034055727554,50.0
3672,60.76335139318886,50.0
3673,57.681888544891635,50.0
3674,63.09017027863777,50.0
3675,57.69640092879257,50.0
3676,56.53057275541795,50.0
3677,59.57333591331269,50.0
3678,57.67221362229102,50.0
3679,61.547020123839005,50.0
3680,60.898800309597526,50.0
3681,59.18150154798762,50.0
3682,60.70046439628484,50.0
3683,56.245162538699695,50.0
3684,59.12828947368422,50.0
3685,58.465557275541805,50.0
3686,56.59829721362229,50.0
3687,58.06888544891641,50.0
3688,58.692917956656345,50.0
3689,59.28792569659442,50.0
3690,58.3155959752322,50.0
3691,55.66950464396285,50.0
3692,57.797987616099064,50.0
3693,52.20104489164086,50.0
3694,61.10681114551083,50.0
3695,57.720588235294116,50.0
3696,57.94794891640866,50.0
3697,58.039860681114554,50.0
3698,59.36048761609907,50.0
3699,55.78076625386996,50.0
3700,58.56714396284829,50.0
3701,58.73645510835914,50.0
3702,59.52012383900929,50.0
3703,58.78966718266254,50.0
3704,61.43575851393189,50.0
3705,58.7219427244582,50.0
3706,56.37093653250774,50.0
3707,59.42821207430341,50.0
3708,57.73026315789474,50.0
3709,58.55263157894736,50.0
3710,56.1484133126935,50.0
3711,54.19891640866874,50.0
3712,62.66931114551083,50.0
3713,60.110294117647065,50.0
3714,59.92163312693499,50.0
3715,58.38332043343653,50.0
3716,55.13738390092879,50.0
3717,58.692917956656345,50.0
3718,55.050309597523224,50.0
3719,56.11455108359132,50.0
3720,60.395704334365334,50.0
3721,56.303212074303396,50.0
3722,61.07294891640868,50.0
3723,60.41021671826625,50.0
3724,60.90847523219815,50.0
3725,57.48355263157893,50.0
3726,55.37925696594427,50.0
3727,60.995549535603715,50.0
3728,58.562306501547994,50.0
3729,55.10352167182663,50.0
3730,58.465557275541805,50.0
3731,60.67627708978327,50.0
3732,56.288699690402474,50.0
3733,54.76006191950464,50.0
3734,61.06327399380805,50.0
3735,58.21400928792569,50.0
3736,58.66389318885449,50.0
3737,57.96729876160991,50.0
3738,58.63486842105263,50.0
3739,59.51528637770897,50.0
3740,61.300309597523224,50.0
3741,57.84152476780185,50.0
3742,62.31133900928793,50.0
3743,58.035023219814235,50.0
3744,60.14415634674923,50.0
3745,60.352167182662534,50.0
3746,60.28444272445821,50.0
3747,57.362616099071204,50.0
3748,58.978328173374614,50.0
3749,55.098684210526315,50.0
3750,62.18072755417957,50.0
3751,56.03715170278638,50.0
3752,61.0874613003096,50.0
3753,55.50986842105264,50.0
3754,59.78618421052631,50.0
3755,59.66041021671827,50.0
3756,58.45588235294117,50.0
3757,58.32527089783281,50.0
3758,62.258126934984524,50.0
3759,59.81037151702787,50.0
3760,59.53947368421053,50.0
3761,61.98239164086689,50.0
3762,58.6203560371517,50.0
3763,57.067530959752325,50.0
3764,59.15731424148606,50.0
3765,55.451818885448915,50.0
3766,56.05166408668731,50.0
3767,61.2906346749226,50.0
3768,59.607198142414866,50.0
3769,60.574690402476776,50.0
3770,58.89125386996904,50.0
3771,58.62519349845201,50.0
3772,58.8719040247678,50.0
3773,61.900154798761605,50.0
3774,55.56308049535603,50.0
3775,56.73374613003096,50.0
3776,59.05089009287926,50.0
3777,59.09926470588236,50.0
3778,58.68808049535604,50.0
3779,58.576818885448915,50.0
3780,60.10061919504644,50.0
3781,56.31772445820434,50.0
3782,58.659055727554176,50.0
3783,57.169117647058826,50.0
3784,57.46420278637771,50.0
3785,55.62113003095976,50.0
3786,57.386803405572756,50.0
3787,56.74342105263157,50.0
3788,57.319078947368425,50.0
3789,61.35835913312694,50.0
3790,60.11513157894736,50.0
3791,57.8125,50.0
3792,58.28173374613003,50.0
3793,58.513931888544896,50.0
3794,58.29140866873065,50.0
3795,63.312693498452006,50.0
3796,57.74477554179567,50.0
3797,58.48490712074303,50.0
3798,57.9140866873065,50.0
3799,56.30321207430341,50.0
3800,58.601006191950475,50.0
3801,57.62867647058824,50.0
3802,57.44485294117647,50.0
3803,56.2016253869969,50.0
3804,61.4889705882353,50.0
3805,57.8608746130031,50.0
3806,58.1124226006192,50.0
3807,57.17395510835913,50.0
3808,56.43382352941177,50.0
3809,55.326044891640855,50.0
3810,57.236842105263165,50.0
3811,61.953366873065015,50.0
3812,60.50212848297215,50.0
3813,59.57333591331269,50.0
3814,55.12770897832817,50.0
3815,62.282314241486056,50.0
3816,58.40267027863778,50.0
3817,56.33707430340557,50.0
3818,57.35294117647058,50.0
3819,58.83320433436533,50.0
3820,57.551277089783284,50.0
3821,56.01780185758514,50.0
3822,57.609326625387,50.0
3823,55.65982972136223,50.0
3824,57.64318885448917,50.0
3825,58.86222910216718,50.0
3826,59.34597523219814,50.0
3827,56.93691950464397,50.0
3828,58.18498452012385,50.0
3829,54.377902476780186,50.0
3830,57.79798761609907,50.0
3831,58.92511609907121,50.0
3832,57.304566563467496,50.0
3833,57.44001547987616,50.0
3834,60.028057275541805,50.0
3835,56.01296439628483,50.0
3836,57.00464396284829,50.0
3837,55.66466718266255,50.0
3838,58.78966718266254,50.0
3839,59.04121517027864,50.0
3840,58.625193498452006,50.0
3841,59.13796439628483,50.0
3842,57.37712848297213,50.0
3843,59.19117647058823,50.0
3844,61.455108359133135,50.0
3845,58.61551857585138,50.0
3846,57.918924148606806,50.0
3847,59.32178792569659,50.0
3848,58.75096749226006,50.0
3849,60.12964396284829,50.0
3850,59.84423374613003,50.0
3851,58.523606811145505,50.0
3852,58.828366873065015,50.0
3853,59.42821207430341,50.0
3854,60.734326625387,50.0
3855,57.0578560371517,50.0
3856,59.108939628482965,50.0
3857,59.384674922600624,50.0
3858,57.62383900928793,50.0
3859,57.986648606811144,50.0
3860,63.05630804953559,50.0
3861,59.399187306501545,50.0
3862,59.21052631578947,50.0
3863,59.278250773993804,50.0
3864,59.268575851393194,50.0
3865,60.652089783281724,50.0
3866,58.82836687306502,50.0
3867,56.2983746130031,50.0
3868,55.35023219814242,50.0
3869,63.86900154798762,50.0
3870,60.28928018575851,50.0
3871,58.34462074303405,50.0
3872,60.07643188854489,50.0
3873,56.09520123839008,50.0
3874,61.75019349845202,50.0
3875,55.650154798761605,50.0
3876,56.4580108359133,50.0
3877,60.758513931888544,50.0
3878,57.55611455108359,50.0
3879,59.38467492260062,50.0
3880,55.21478328173375,50.0
3881,53.71517027863777,50.0
3882,59.15247678018575,50.0
3883,56.87403250773993,50.0
3884,58.692917956656345,50.0
3885,58.107585139318886,50.0
3886,55.471168730650156,50.0
3887,60.26993034055728,50.0
3888,56.00328947368422,50.0
3889,57.09655572755418,50.0
3890,56.74342105263158,50.0
3891,55.91137770897833,50.0
3892,58.528444272445824,50.0
3893,59.14763931888545,50.0
3894,59.37983746130031,50.0
3895,60.240905572755416,50.0
3896,59.099264705882355,50.0
3897,61.967879256965944,50.0
3898,62.70317337461299,50.0
3899,55.98393962848298,50.0
3900,58.625193498452006,50.0
3901,59.737809597523224,50.0
3902,59.302438080495364,50.0
3903,57.304566563467496,50.0
3904,57.79315015479875,50.0
3905,59.12828947368422,50.0
3906,56.733746130030966,50.0
3907,58.77515479876161,50.0
3908,60.16350619195047,50.0
3909,56.44349845201238,50.0
3910,57.9140866873065,50.0
3911,55.5921052631579,50.0
3912,56.28869969040248,50.0
3913,57.0046439628483,50.0
3914,61.039086687306494,50.0
3915,57.2561919504644,50.0
3916,59.882933436532504,50.0
3917,55.35023219814243,50.0
3918,59.12828947368422,50.0
3919,56.782120743034056,50.0
3920,64.41079721362229,50.0
3921,61.98239164086687,50.0
3922,58.3688080495356,50.0
3923,59.76199690402477,50.0
3924,57.97697368421052,50.0
3925,58.13660990712074,50.0
3926,61.30514705882353,50.0
3927,62.94988390092879,50.0
3928,55.33088235294118,50.0
3929,59.99903250773993,50.0
3930,60.12480650154799,50.0
3931,56.012964396284815,50.0
3932,59.08958978328173,50.0
3933,61.05359907120744,50.0
3934,57.83184984520123,50.0
3935,58.233359133126925,50.0
3936,57.372291021671835,50.0
3937,58.37848297213621,50.0
3938,54.460139318885446,50.0
3939,61.363196594427244,50.0
3940,60.83107585139319,50.0
3941,57.918924148606806,50.0
3942,56.61764705882353,50.0
3943,58.944465944272444,50.0
3944,59.021865325077385,50.0
3945,60.44891640866874,50.0
3946,59.76683436532508,50.0
3947,57.08688080495355,50.0
3948,60.95201238390093,50.0
3949,58.823529411764696,50.0
3950,59.665247678018574,50.0
3951,56.535410216718276,50.0
3952,56.35158668730651,50.0
3953,59.0702399380805,50.0
3954,56.71923374613004,50.0
3955,57.14493034055728,50.0
3956,57.77863777089783,50.0
3957,59.85390866873064,50.0
3958,56.63215944272446,50.0
3959,61.242260061919495,50.0
3960,56.86919504643962,50.0
3961,56.33223684210526,50.0
3962,59.331462848297214,50.0
3963,58.475232198142415,50.0
3964,55.42279411764706,50.0
3965,60.598877708978335,50.0
3966,64.46400928792569,50.0
3967,59.59752321981424,50.0
3968,58.397832817337466,50.0
3969,56.31288699690403,50.0
3970,61.39705882352941,50.0
3971,57.52225232198143,50.0
3972,58.45588235294117,50.0
3973,56.28386222910217,50.0
3974,58.24303405572755,50.0
3975,59.9796826625387,50.0
3976,60.55534055727554,50.0
3977,57.8608746130031,50.0
3978,60.13448142414862,50.0
3979,57.531927244582036,50.0
3980,59.70394736842105,50.0
3981,54.90034829721361,50.0
3982,57.014318885448915,50.0
3983,57.63351393188856,50.0
3984,59.375,50.0
3985,61.571207430340564,50.0
3986,56.675696594427244,50.0
3987,57.73993808049535,50.0
3988,56.35642414860681,50.0
3989,58.04469814241486,50.0
3990,58.06404798761611,50.0
3991,53.13467492260061,50.0
3992,60.45859133126935,50.0
3993,62.287151702786375,50.0
3994,58.054373065015476,50.0
3995,56.48219814241486,50.0
3996,55.86300309597522,50.0
3997,58.49941950464396,50.0
3998,57.07236842105264,50.0
3999,59.99903250773993,50.0
4000,57.33842879256966,50.0
4001,58.55263157894737,50.0
4002,56.970781733746136,50.0
4003,58.35913312693499,50.0
4004,57.314241486068106,50.0
4005,57.59965170278638,50.0
4006,59.72329721362228,50.0
4007,58.499419504643974,50.0
4008,59.91679566563467,50.0
4009,56.375773993808046,50.0
4010,57.78831269349845,50.0
4011,58.53811919504644,50.0
4012,56.898219814241486,50.0
4013,61.624419504643974,50.0
4014,56.31288699690402,50.0
4015,55.08900928792569,50.0
4016,57.16911764705883,50.0
4017,57.469040247678016,50.0
4018,61.93885448916408,50.0
4019,58.7703173374613,50.0
4020,59.46207430340558,50.0
4021,55.75657894736842,50.0
4022,57.68188854489164,50.0
4023,57.87538699690403,50.0
4024,58.04469814241485,50.0
4025,57.94794891640867,50.0
4026,59.42821207430341,50.0
4027,58.015673374613,50.0
4028,59.20085139318886,50.0
4029,58.95897832817337,50.0
4030,57.367453560371516,50.0
4031,58.34462074303405,50.0
4032,57.033668730650156,50.0
4033,55.82914086687307,50.0
4034,55.388931888544896,50.0
4035,58.66873065015481,50.0
4036,59.99903250773993,50.0
4037,61.78889318885449,50.0
4038,59.578173374612994,50.0
4039,55.2438080495356,50.0
4040,54.155379256965944,50.0
4041,60.25541795665634,50.0
4042,58.644543343653254,50.0
4043,57.50290247678018,50.0
4044,61.4938080495356,50.0
4045,59.94098297213622,50.0
4046,54.80359907120743,50.0
4047,59.500773993808046,50.0
4048,58.05437306501548,50.0
4049,60.39570433436532,50.0
4050,56.48219814241486,50.0
4051,58.441369969040245,50.0
4052,58.53328173374613,50.0
4053,55.306695046439636,50.0
4054,58.03018575851393,50.0
4055,59.36532507739939,50.0
4056,58.93479102167183,50.0
4057,57.236842105263165,50.0
4058,58.40267027863777,50.0
4059,57.88989938080495,50.0
4060,59.26857585139318,50.0
4061,58.95897832817337,50.0
4062,60.20704334365325,50.0
4063,55.96942724458205,50.0
4064,57.251354489164086,50.0
4065,59.90228328173374,50.0
4066,56.999806501547994,50.0
4067,57.633513931888544,50.0
4068,56.8014705882353,50.0
4069,57.89957430340557,50.0
4070,59.307275541795676,50.0
4071,60.04256965944272,50.0
4072,58.12209752321981,50.0
4073,60.25058049535604,50.0
4074,59.90228328173375,50.0
4075,59.04121517027865,50.0
4076,55.23897058823529,50.0
4077,60.932662538699695,50.0
4078,58.3155959752322,50.0
4079,57.51741486068111,50.0
4080,56.3515866873065,50.0
4081,54.97774767801859,50.0
4082,57.24651702786378,50.0
4083,58.38332043343654,50.0
4084,59.084752321981426,50.0
4085,56.93691950464397,50.0
4086,61.73084365325077,50.0
4087,56.58862229102167,50.0
4088,61.851780185758514,50.0
4089,56.825657894736835,50.0
4090,58.03502321981425,50.0
4091,59.72813467492261,50.0
4092,55.09384674922601,50.0
4093,55.20510835913313,50.0
4094,59.418537151702786,50.0
4095,58.48974458204335,50.0
4096,59.03154024767803,50.0
4097,56.70472136222911,50.0
4098,57.94794891640866,50.0
4099,57.338428792569665,50.0
4100,56.62248452012384,50.0
4101,59.81520897832817,50.0
4102,59.53463622291022,50.0
4103,56.67085913312693,50.0
4104,58.24787151702786,50.0
4105,59.82004643962847,50.0
4106,62.08881578947369,50.0
4107,55.02128482972137,50.0
4108,61.08262383900929,50.0
4109,58.62519349845201,50.0
4110,55.572755417956664,50.0
4111,58.320433436532504,50.0
4112,60.211880804953545,50.0
4113,60.26993034055728,50.0
4114,56.733746130030966,50.0
4115,62.08881578947369,50.0
4116,59.970007739938076,50.0
4117,57.46420278637771,50.0
4118,54.79876160990711,50.0
4119,62.87732198142415,50.0
4120,57.904411764705884,50.0
4121,60.661764705882355,50.0
4122,57.47871517027864,50.0
4123,55.093846749226,50.0
4124,58.04953560371518,50.0
4125,56.36609907120743,50.0
4126,56.835332817337466,50.0
4127,55.61629256965944,50.0
4128,58.692917956656345,50.0
4129,61.10681114551085,50.0
4130,60.835913312693506,50.0
4131,61.06811145510836,50.0
4132,58.00599845201239,50.0
4133,55.10352167182663,50.0
4134,56.93691950464395,50.0
4135,57.85603715170278,50.0
4136,58.71226780185759,50.0
4137,62.73703560371517,50.0
4138,57.56578947368422,50.0
4139,55.224458204334354,50.0
4140,59.002515479876166,50.0
4141,59.171826625387006,50.0
4142,59.36532507739938,50.0
4143,57.338428792569665,50.0
4144,53.9328560371517,50.0
4145,61.98239164086689,50.0
4146,59.77167182662539,50.0
4147,56.82082043343652,50.0
4148,56.008126934984524,50.0
4149,61.116486068111456,50.0
4150,60.80688854489163,50.0
4151,56.97078173374614,50.0
4152,60.43924148606811,50.0
4153,56.71923374613003,50.0
4154,62.33552631578947,50.0
4155,57.31907894736842,50.0
4156,58.8235294117647,50.0
4157,58.90576625386997,50.0
4158,57.294891640866865,50.0
4159,59.09442724458204,50.0
4160,57.95762383900928,50.0
4161,60.20704334365326,50.0
4162,60.33765479876162,50.0
4163,57.79798761609907,50.0
4164,56.956269349845186,50.0
4165,55.809791021671835,50.0
4166,60.16350619195047,50.0
4167,60.14899380804953,50.0
4168,60.90363777089783,50.0
4169,60.3860294117647,50.0
4170,56.02263931888545,50.0
4171,57.67221362229102,50.0
4172,59.007352941176464,50.0
4173,58.663893188854495,50.0
4174,60.057082043343655,50.0
4175,58.60584365325078,50.0
4176,61.83243034055728,50.0
4177,55.47600619195047,50.0
4178,58.160797213622295,50.0
4179,60.240905572755416,50.0
4180,56.68053405572755,50.0
4181,58.60100619195048,50.0
4182,57.18846749226006,50.0
4183,57.58997678018576,50.0
4184,60.995549535603715,50.0
4185,57.701238390092875,50.0
4186,57.435178018575854,50.0
4187,58.50909442724458,50.0
4188,58.49941950464396,50.0
4189,57.0094814241486,50.0
4190,58.33010835913312,50.0
4191,59.418537151702786,50.0
4192,59.83455882352941,50.0
4193,60.1344814241486,50.0
4194,58.81385448916407,50.0
4195,58.99767801857586,50.0
4196,59.5249613003096,50.0
4197,56.90789473684211,50.0
4198,59.316950464396285,50.0
4199,59.45239938080495,50.0
4200,58.86706656346749,50.0
4201,58.562306501547994,50.0
4202,55.89202786377708,50.0
4203,57.739938080495364,50.0
4204,59.51044891640866,50.0
4205,57.99632352941176,50.0
4206,55.82914086687306,50.0
4207,60.327979876160995,50.0
4208,58.68324303405572,50.0
4209,55.78076625386997,50.0
4210,60.153831269349844,50.0
4211,59.99903250773993,50.0
4212,63.59810371517028,50.0
4213,58.29140866873065,50.0
4214,59.51044891640866,50.0
4215,55.24864551083592,50.0
4216,60.48277863777089,50.0
4217,60.3328173374613,50.0
4218,62.258126934984524,50.0
4219,57.35294117647059,50.0
4220,57.048181114551085,50.0
4221,55.73239164086688,50.0
4222,62.379063467492266,50.0
4223,60.24574303405572,50.0
4224,60.26025541795666,50.0
4225,57.56578947368421,50.0
4226,62.45162538699691,50.0
4227,61.2906346749226,50.0
4228,55.364744582043336,50.0
4229,60.574690402476776,50.0
4230,57.672213622291025,50.0
4231,60.303792569659436,50.0
4232,55.02612229102167,50.0
4233,58.286571207430335,50.0
4234,57.425503095975216,50.0
4235,56.68537151702787,50.0
4236,58.19465944272446,50.0
4237,59.38467492260061,50.0
4238,58.731617647058826,50.0
4239,58.56230650154799,50.0
4240,58.03018575851393,50.0
4241,60.23606811145511,50.0
4242,60.318304953560364,50.0
4243,59.007352941176464,50.0
4244,58.70743034055727,50.0
4245,59.85390866873064,50.0
4246,61.266447368421055,50.0
4247,57.93343653250774,50.0
4248,59.00735294117647,50.0
4249,58.26722136222911,50.0
4250,53.78773219814241,50.0
4251,60.34732972136223,50.0
4252,57.367453560371516,50.0
4253,61.95336687306502,50.0
4254,59.32178792569659,50.0
4255,58.44620743034055,50.0
4256,56.612809597523224,50.0
4257,56.680534055727556,50.0
4258,54.9874226006192,50.0
4259,57.59965170278637,50.0
4260,59.171826625387,50.0
4261,61.41157120743034,50.0
4262,58.54779411764706,50.0
4263,60.19736842105264,50.0
4264,58.86706656346749,50.0
4265,57.144930340557266,50.0
4266,56.94175696594427,50.0
4267,59.59268575851394,50.0
4268,55.877515479876166,50.0
4269,58.27689628482971,50.0
4270,61.01006191950464,50.0
4271,61.26160990712075,50.0
4272,56.259674922600624,50.0
4273,56.79179566563467,50.0
4274,57.488390092879264,50.0
4275,59.72329721362229,50.0
4276,63.767414860681114,50.0
4277,58.35429566563467,50.0
4278,59.61203560371517,50.0
4279,57.502902476780186,50.0
4280,57.90441176470588,50.0
4281,58.900928792569665,50.0
4282,57.61416408668731,50.0
4283,62.11300309597523,50.0
4284,59.59268575851394,50.0
4285,56.31288699690403,50.0
4286,58.35429566563467,50.0
4287,60.884287925696604,50.0
4288,61.97755417956657,50.0
4289,56.66602167182663,50.0
4290,58.557469040247675,50.0
4291,59.62654798761611,50.0
4292,56.01296439628483,50.0
