sample_id,accuracy,window_size
0,57.50290247678019,10.0
1,52.20588235294117,10.0
2,58.79450464396285,10.0
3,56.7530959752322,10.0
4,57.56578947368421,10.0
5,55.86300309597524,10.0
6,56.32739938080495,10.0
7,59.5249613003096,10.0
8,60.003869969040245,10.0
9,56.54024767801858,10.0
10,56.10971362229102,10.0
11,60.37635448916408,10.0
12,56.68537151702786,10.0
13,54.64396284829722,10.0
14,56.046826625387,10.0
15,54.92937306501548,10.0
16,53.7780572755418,10.0
17,52.612229102167184,10.0
18,55.137383900928796,10.0
19,57.51741486068112,10.0
20,59.29760061919505,10.0
21,56.26934984520125,10.0
22,53.19756191950465,10.0
23,53.70549535603715,10.0
24,52.58320433436533,10.0
25,57.62383900928793,10.0
26,57.74961300309597,10.0
27,54.058630030959755,10.0
28,55.3453947368421,10.0
29,56.72890866873065,10.0
30,57.473877708978335,10.0
31,55.53405572755418,10.0
32,57.22716718266253,10.0
33,55.22929566563468,10.0
34,57.40131578947369,10.0
35,58.325270897832816,10.0
36,55.113196594427244,10.0
37,57.23200464396285,10.0
38,54.50367647058823,10.0
39,58.528444272445824,10.0
40,54.19407894736841,10.0
41,54.9874226006192,10.0
42,57.381965944272444,10.0
43,57.159442724458195,10.0
44,56.51606037151702,10.0
45,56.545085139318886,10.0
46,59.824883900928796,10.0
47,58.102747678018574,10.0
48,55.18575851393189,10.0
49,53.01857585139319,10.0
50,56.91273219814241,10.0
51,55.51470588235294,10.0
52,57.27070433436533,10.0
53,57.46420278637771,10.0
54,54.639125386996895,10.0
55,56.656346749226,10.0
56,54.29566563467491,10.0
57,59.51044891640867,10.0
58,59.69910990712075,10.0
59,56.453173374613,10.0
60,56.254837461300305,10.0
61,54.91486068111455,10.0
62,57.406153250774,10.0
63,57.37712848297213,10.0
64,54.18440402476781,10.0
65,56.73858359133127,10.0
66,60.13448142414862,10.0
67,57.967298761609904,10.0
68,58.3155959752322,10.0
69,54.99709752321981,10.0
70,55.4905185758514,10.0
71,56.341911764705884,10.0
72,51.920472136222905,10.0
73,51.42705108359133,10.0
74,59.017027863777095,10.0
75,54.06830495356037,10.0
76,57.68188854489165,10.0
77,54.75522445820433,10.0
78,54.90518575851392,10.0
79,56.24032507739938,10.0
80,55.26315789473684,10.0
81,57.43034055727555,10.0
82,51.67859907120743,10.0
83,56.477360681114554,10.0
84,59.00251547987616,10.0
85,55.930727554179555,10.0
86,58.330108359133135,10.0
87,56.83533281733746,10.0
88,55.17608359133128,10.0
89,58.746130030959755,10.0
90,52.215557275541805,10.0
91,58.44620743034056,10.0
92,54.59075077399382,10.0
93,58.4655572755418,10.0
94,52.73316563467493,10.0
95,57.817337461300305,10.0
96,56.912732198142415,10.0
97,56.82565789473683,10.0
98,56.53541021671827,10.0
99,54.96807275541796,10.0
100,56.254837461300305,10.0
101,57.328753869969034,10.0
102,57.17395510835914,10.0
103,56.23548761609908,10.0
104,55.18575851393189,10.0
105,59.849071207430335,10.0
106,58.17530959752322,10.0
107,54.33436532507741,10.0
108,57.50773993808049,10.0
109,56.44349845201238,10.0
110,57.17879256965944,10.0
111,52.646091331269346,10.0
112,58.56714396284829,10.0
113,59.09442724458204,10.0
114,48.62616099071208,10.0
115,58.5187693498452,10.0
116,58.66873065015481,10.0
117,55.974264705882355,10.0
118,57.183630030959755,10.0
119,56.559597523219814,10.0
120,57.464202786377705,10.0
121,56.04198916408669,10.0
122,54.48916408668731,10.0
123,60.81656346749225,10.0
124,55.640479876161,10.0
125,55.71787925696595,10.0
126,56.46284829721362,10.0
127,56.64667182662539,10.0
128,58.015673374612994,10.0
129,52.93633900928792,10.0
130,58.08339783281733,10.0
131,57.952786377708975,10.0
132,54.89067337461301,10.0
133,57.314241486068106,10.0
134,55.47116873065016,10.0
135,59.47174922600618,10.0
136,56.43382352941177,10.0
137,60.652089783281724,10.0
138,63.84965170278639,10.0
139,54.00058049535603,10.0
140,55.90170278637771,10.0
141,57.1594427244582,10.0
142,57.83668730650154,10.0
143,57.9140866873065,10.0
144,56.5547600619195,10.0
145,55.51470588235294,10.0
146,54.16021671826625,10.0
147,54.547213622291025,10.0
148,60.50212848297213,10.0
149,58.915441176470594,10.0
150,57.99148606811145,10.0
151,55.85816563467492,10.0
152,57.85119969040248,10.0
153,60.50696594427245,10.0
154,55.98393962848297,10.0
155,58.75096749226006,10.0
156,58.41234520123839,10.0
157,51.91563467492261,10.0
158,61.06811145510837,10.0
159,57.07720588235295,10.0
160,53.957043343653254,10.0
161,60.67627708978327,10.0
162,59.012190402476776,10.0
163,57.83668730650155,10.0
164,56.84984520123839,10.0
165,56.58378482972136,10.0
166,56.757933436532504,10.0
167,62.4032507739938,10.0
168,53.79740712074303,10.0
169,57.11106811145511,10.0
170,57.14009287925696,10.0
171,57.86571207430341,10.0
172,59.80553405572755,10.0
173,55.519543343653254,10.0
174,57.55611455108359,10.0
175,57.440015479876166,10.0
176,59.820046439628484,10.0
177,55.388931888544896,10.0
178,57.06753095975232,10.0
179,54.06346749226005,10.0
180,54.26180340557275,10.0
181,54.51818885448917,10.0
182,53.12983746130031,10.0
183,55.601780185758514,10.0
184,57.62867647058823,10.0
185,58.9202786377709,10.0
186,57.9140866873065,10.0
187,54.18924148606812,10.0
188,55.70336687306502,10.0
189,59.476586687306494,10.0
190,54.42627708978328,10.0
191,61.75986842105262,10.0
192,55.15189628482972,10.0
193,57.56095201238389,10.0
194,57.183630030959755,10.0
195,50.82236842105264,10.0
196,56.675696594427244,10.0
197,54.48916408668731,10.0
198,58.35429566563467,10.0
199,55.69852941176471,10.0
200,60.821400928792585,10.0
201,59.974845201238395,10.0
202,57.64318885448917,10.0
203,55.66950464396285,10.0
204,59.87325851393188,10.0
205,56.04198916408669,10.0
206,59.433049535603715,10.0
207,56.79179566563468,10.0
208,53.29914860681114,10.0
209,54.532701238390096,10.0
210,57.36745356037153,10.0
211,56.07101393188855,10.0
212,60.46826625386996,10.0
213,51.552825077399376,10.0
214,55.72755417956655,10.0
215,54.66815015479876,10.0
216,58.94446594427244,10.0
217,56.80630804953561,10.0
218,58.378482972136226,10.0
219,55.23413312693498,10.0
220,55.90170278637771,10.0
221,56.07585139318885,10.0
222,50.76915634674922,10.0
223,56.75309597523219,10.0
224,55.92589009287925,10.0
225,56.31772445820434,10.0
226,53.81675696594427,10.0
227,51.78986068111455,10.0
228,56.91273219814242,10.0
229,59.19601393188856,10.0
230,57.12074303405572,10.0
231,60.400541795665625,10.0
232,56.46768575851394,10.0
233,55.601780185758514,10.0
234,56.02747678018576,10.0
235,58.33978328173375,10.0
236,59.37016253869969,10.0
237,53.48297213622291,10.0
238,55.921052631578945,10.0
239,57.70607585139319,10.0
240,53.38622291021672,10.0
241,54.09249226006191,10.0
242,58.19949690402477,10.0
243,60.65208978328174,10.0
244,54.96323529411765,10.0
245,59.70394736842106,10.0
246,59.99419504643963,10.0
247,52.54934210526315,10.0
248,54.76006191950464,10.0
249,60.28928018575851,10.0
250,57.1594427244582,10.0
251,54.71652476780186,10.0
252,57.65286377708978,10.0
253,57.72542569659443,10.0
254,58.62519349845201,10.0
255,56.43866099071207,10.0
256,58.29140866873064,10.0
257,55.335719814241486,10.0
258,56.01780185758515,10.0
259,53.47329721362229,10.0
260,54.131191950464384,10.0
261,58.77999226006192,10.0
262,58.784829721362236,10.0
263,59.21536377708978,10.0
264,56.975619195046434,10.0
265,56.370936532507734,10.0
266,57.95762383900929,10.0
267,58.54779411764706,10.0
268,54.697174922600624,10.0
269,55.26799535603715,10.0
270,58.73645510835914,10.0
271,54.01509287925697,10.0
272,61.01973684210527,10.0
273,57.217492260061924,10.0
274,56.8014705882353,10.0
275,59.017027863777095,10.0
276,55.80495356037152,10.0
277,53.487809597523224,10.0
278,53.89899380804953,10.0
279,62.93053405572756,10.0
280,59.89744582043344,10.0
281,57.13525541795666,10.0
282,54.51818885448917,10.0
283,61.0874613003096,10.0
284,56.60313467492261,10.0
285,62.02109133126935,10.0
286,54.81811145510836,10.0
287,55.785603715170275,10.0
288,56.5499226006192,10.0
289,58.6203560371517,10.0
290,54.57623839009288,10.0
291,54.40692724458205,10.0
292,54.692337461300305,10.0
293,60.83107585139319,10.0
294,56.390286377708975,10.0
295,57.39164086687307,10.0
296,58.6203560371517,10.0
297,54.50367647058823,10.0
298,54.91002321981425,10.0
299,59.413699690402474,10.0
300,56.607972136222905,10.0
301,56.67085913312694,10.0
302,51.33997678018576,10.0
303,57.517414860681114,10.0
304,59.994195046439636,10.0
305,58.673568111455104,10.0
306,58.21400928792569,10.0
307,57.18363003095975,10.0
308,56.11455108359134,10.0
309,53.608746130030966,10.0
310,56.54508513931888,10.0
311,56.31288699690403,10.0
312,57.54160216718267,10.0
313,55.843653250774,10.0
314,58.05921052631578,10.0
315,55.83397832817337,10.0
316,57.236842105263165,10.0
317,56.21613777089783,10.0
318,55.15673374613003,10.0
319,56.46768575851393,10.0
320,57.53192724458205,10.0
321,56.5595975232198,10.0
322,55.06482198142414,10.0
323,56.080688854489175,10.0
324,58.310758513931894,10.0
325,54.02960526315789,10.0
326,59.674922600619205,10.0
327,56.88370743034056,10.0
328,58.67356811145511,10.0
329,55.64531733746131,10.0
330,57.39647832817337,10.0
331,59.6265479876161,10.0
332,56.71923374613003,10.0
333,57.08688080495356,10.0
334,57.61900154798761,10.0
335,58.17047213622292,10.0
336,55.78560371517028,10.0
337,60.50212848297215,10.0
338,55.68401702786377,10.0
339,53.40557275541796,10.0
340,55.471168730650156,10.0
341,56.21130030959752,10.0
342,57.638351393188856,10.0
343,59.665247678018574,10.0
344,57.10623065015481,10.0
345,55.364744582043336,10.0
346,52.33165634674923,10.0
347,54.40692724458205,10.0
348,54.74071207430341,10.0
349,55.07933436532508,10.0
350,56.041989164086694,10.0
351,56.59345975232198,10.0
352,57.31424148606811,10.0
353,54.59558823529411,10.0
354,57.764125386996895,10.0
355,57.27070433436532,10.0
356,55.76141640866874,10.0
357,59.02186532507739,10.0
358,58.68808049535603,10.0
359,57.657701238390096,10.0
360,58.494582043343655,10.0
361,57.638351393188856,10.0
362,60.06191950464396,10.0
363,60.63757739938081,10.0
364,55.51954334365325,10.0
365,55.80979102167183,10.0
366,54.70684984520123,10.0
367,55.63080495356036,10.0
368,55.64531733746131,10.0
369,56.414473684210535,10.0
370,57.43517801857585,10.0
371,55.640479876160995,10.0
372,58.494582043343655,10.0
373,55.86300309597523,10.0
374,59.6797600619195,10.0
375,53.802244582043336,10.0
376,53.58939628482972,10.0
377,55.529218266253864,10.0
378,54.992260061919495,10.0
379,56.999806501547994,10.0
380,56.5499226006192,10.0
381,54.32469040247679,10.0
382,57.406153250774,10.0
383,56.046826625387,10.0
384,57.66737616099072,10.0
385,54.70684984520124,10.0
386,57.227167182662534,10.0
387,57.285216718266255,10.0
388,54.50851393188855,10.0
389,58.809017027863774,10.0
390,53.74903250773993,10.0
391,53.0234133126935,10.0
392,57.45452786377709,10.0
393,60.42956656346749,10.0
394,55.064821981424146,10.0
395,55.26315789473684,10.0
396,55.82914086687307,10.0
397,58.9734907120743,10.0
398,56.67085913312694,10.0
399,58.122097523219814,10.0
400,56.675696594427244,10.0
401,57.60448916408669,10.0
402,58.77999226006192,10.0
403,56.25967492260062,10.0
404,55.935565015479874,10.0
405,55.98393962848297,10.0
406,51.42705108359133,10.0
407,61.40189628482973,10.0
408,60.46826625386996,10.0
409,53.19272445820433,10.0
410,57.89957430340558,10.0
411,52.66060371517027,10.0
412,55.66950464396285,10.0
413,59.505611455108365,10.0
414,60.76335139318885,10.0
415,58.25754643962849,10.0
416,55.69369195046439,10.0
417,54.22794117647058,10.0
418,53.734520123839005,10.0
419,53.28463622291022,10.0
420,55.28250773993809,10.0
421,56.491873065015476,10.0
422,57.54160216718266,10.0
423,55.43246904024768,10.0
424,53.36687306501548,10.0
425,57.73993808049537,10.0
426,55.78076625386997,10.0
427,58.262383900928796,10.0
428,57.5077399380805,10.0
429,57.193304953560364,10.0
430,56.47252321981425,10.0
431,55.56308049535603,10.0
432,55.388931888544896,10.0
433,55.92589009287926,10.0
434,59.25890092879256,10.0
435,58.039860681114554,10.0
436,59.55398606811146,10.0
437,55.81462848297213,10.0
438,56.254837461300305,10.0
439,58.402670278637785,10.0
440,60.26509287925696,10.0
441,52.505804953560364,10.0
442,55.85332817337461,10.0
443,56.9078947368421,10.0
444,58.48006965944273,10.0
445,56.66602167182663,10.0
446,57.34326625386997,10.0
447,56.05166408668731,10.0
448,57.3094040247678,10.0
449,54.092492260061924,10.0
450,52.95568885448916,10.0
451,54.431114551083596,10.0
452,53.642608359133135,10.0
453,58.731617647058826,10.0
454,59.49593653250775,10.0
455,55.059984520123834,10.0
456,53.69098297213623,10.0
457,57.59481424148608,10.0
458,57.85603715170278,10.0
459,53.71517027863777,10.0
460,59.11861455108359,10.0
461,56.85952012383902,10.0
462,50.653057275541805,10.0
463,53.95704334365325,10.0
464,57.83184984520124,10.0
465,56.714396284829725,10.0
466,57.89957430340557,10.0
467,55.988777089783284,10.0
468,53.10565015479876,10.0
469,57.2610294117647,10.0
470,60.54566563467491,10.0
471,55.098684210526315,10.0
472,60.86977554179566,10.0
473,58.45588235294118,10.0
474,54.29082817337461,10.0
475,56.44349845201239,10.0
476,55.98877708978328,10.0
477,53.78289473684211,10.0
478,60.0280572755418,10.0
479,55.98393962848297,10.0
480,57.38196594427245,10.0
481,55.12287151702785,10.0
482,60.90847523219815,10.0
483,60.008707430340564,10.0
484,57.90441176470588,10.0
485,60.995549535603715,10.0
486,55.91621517027864,10.0
487,52.559017027863774,10.0
488,57.78831269349845,10.0
489,56.38061145510836,10.0
490,55.45665634674923,10.0
491,55.756578947368425,10.0
492,57.570626934984524,10.0
493,55.954914860681114,10.0
494,55.70820433436533,10.0
495,53.957043343653254,10.0
496,55.650154798761605,10.0
497,59.2250386996904,10.0
498,58.18982198142415,10.0
499,56.815982972136226,10.0
500,56.71923374613003,10.0
501,56.24032507739938,10.0
502,58.77031733746131,10.0
503,58.06404798761609,10.0
504,56.23548761609907,10.0
505,60.187693498452006,10.0
506,57.17879256965944,10.0
507,59.283088235294116,10.0
508,56.33223684210526,10.0
509,51.76567337461301,10.0
510,57.0578560371517,10.0
511,56.68537151702787,10.0
512,56.520897832817326,10.0
513,53.023413312693485,10.0
514,54.67782507739938,10.0
515,56.022639318885446,10.0
516,53.43943498452012,10.0
517,54.70684984520124,10.0
518,53.96671826625388,10.0
519,57.61900154798762,10.0
520,60.44407894736842,10.0
521,56.404798761609904,10.0
522,55.10835913312693,10.0
523,57.45452786377709,10.0
524,57.42550309597523,10.0
525,57.23684210526315,10.0
526,54.53753869969041,10.0
527,58.238196594427244,10.0
528,59.007352941176464,10.0
529,56.9562693498452,10.0
530,56.06617647058824,10.0
531,56.87403250773994,10.0
532,54.963235294117645,10.0
533,53.78289473684211,10.0
534,57.51257739938081,10.0
535,53.821594427244584,10.0
536,57.270704334365334,10.0
537,58.89609133126935,10.0
538,61.32449690402477,10.0
539,55.91137770897833,10.0
540,56.288699690402474,10.0
541,57.2078173374613,10.0
542,54.17472910216719,10.0
543,54.84229876160991,10.0
544,58.41234520123838,10.0
545,55.93556501547988,10.0
546,56.16776315789474,10.0
547,58.79450464396285,10.0
548,57.473877708978335,10.0
549,55.84365325077398,10.0
550,55.90170278637771,10.0
551,58.659055727554176,10.0
552,56.95626934984519,10.0
553,54.90034829721362,10.0
554,59.32178792569659,10.0
555,60.03773219814242,10.0
556,55.171246130030966,10.0
557,58.34945820433437,10.0
558,56.08068885448916,10.0
559,56.89338235294118,10.0
560,58.363970588235304,10.0
561,55.872678018575854,10.0
562,58.44620743034056,10.0
563,60.434404024767794,10.0
564,55.63564241486068,10.0
565,55.1905959752322,10.0
566,53.347523219814235,10.0
567,57.778637770897824,10.0
568,55.07449690402476,10.0
569,55.306695046439636,10.0
570,58.88157894736842,10.0
571,56.24516253869969,10.0
572,56.46284829721362,10.0
573,52.89280185758514,10.0
574,57.7109133126935,10.0
575,53.94736842105264,10.0
576,56.172600619195045,10.0
577,58.05921052631578,10.0
578,53.686145510835914,10.0
579,59.616873065015476,10.0
580,56.08068885448916,10.0
581,54.63428792569659,10.0
582,58.16563467492261,10.0
583,56.3999613003096,10.0
584,56.52089783281734,10.0
585,57.38196594427244,10.0
586,57.101393188854495,10.0
587,57.90924922600619,10.0
588,58.04469814241486,10.0
589,59.21052631578949,10.0
590,54.63428792569659,10.0
591,58.00116099071209,10.0
592,52.9750386996904,10.0
593,50.754643962848306,10.0
594,59.505611455108365,10.0
595,58.13177244582044,10.0
596,58.509094427244584,10.0
597,57.49806501547988,10.0
598,56.458010835913306,10.0
599,58.1172600619195,10.0
600,54.174729102167184,10.0
601,53.40557275541795,10.0
602,54.9922600619195,10.0
603,57.512577399380795,10.0
604,52.147832817337466,10.0
605,54.17956656346749,10.0
606,55.7469040247678,10.0
607,56.985294117647065,10.0
608,54.82294891640867,10.0
609,58.69291795665634,10.0
610,57.89473684210526,10.0
611,58.91060371517029,10.0
612,57.01915634674922,10.0
613,58.31075851393188,10.0
614,55.51470588235295,10.0
615,54.73103715170278,10.0
616,55.190595975232206,10.0
617,58.8670665634675,10.0
618,58.73645510835913,10.0
619,57.60932662538699,10.0
620,56.24032507739938,10.0
621,52.3171439628483,10.0
622,60.91331269349844,10.0
623,55.61145510835914,10.0
624,57.82217492260062,10.0
625,56.801470588235304,10.0
626,55.940402476780186,10.0
627,56.87403250773994,10.0
628,55.5969427244582,10.0
629,56.36609907120743,10.0
630,58.07856037151703,10.0
631,54.55205108359133,10.0
632,53.89899380804954,10.0
633,56.71923374613002,10.0
634,58.89125386996904,10.0
635,58.644543343653254,10.0
636,60.99071207430341,10.0
637,58.84287925696595,10.0
638,62.00174148606811,10.0
639,55.771091331269346,10.0
640,51.80437306501548,10.0
641,55.46149380804953,10.0
642,56.07101393188856,10.0
643,51.51412538699691,10.0
644,57.93343653250774,10.0
645,57.75928792569659,10.0
646,59.404024767801864,10.0
647,55.6985294117647,10.0
648,57.14493034055727,10.0
649,53.7780572755418,10.0
650,58.576818885448915,10.0
651,54.65363777089783,10.0
652,59.95549535603715,10.0
653,54.03928018575851,10.0
654,58.02534829721362,10.0
655,57.44485294117647,10.0
656,58.77031733746131,10.0
657,52.04624613003096,10.0
658,55.732391640866865,10.0
659,56.79179566563468,10.0
660,56.54992260061919,10.0
661,53.81191950464395,10.0
662,56.71923374613003,10.0
663,55.53889318885449,10.0
664,56.45317337461301,10.0
665,59.34597523219814,10.0
666,56.409636222910216,10.0
667,59.21536377708979,10.0
668,58.58649380804953,10.0
669,53.966718266253864,10.0
670,53.60390866873065,10.0
671,56.34191176470588,10.0
672,58.141447368421055,10.0
673,54.63428792569659,10.0
674,55.5969427244582,10.0
675,59.0218653250774,10.0
676,54.914860681114554,10.0
677,60.966524767801864,10.0
678,55.403444272445824,10.0
679,56.04682662538701,10.0
680,56.187113003095966,10.0
681,56.67569659442725,10.0
682,55.471168730650156,10.0
683,56.34674922600619,10.0
684,59.90228328173375,10.0
685,53.16853715170277,10.0
686,57.454527863777095,10.0
687,53.59907120743035,10.0
688,58.70259287925697,10.0
689,57.97213622291022,10.0
690,58.10274767801858,10.0
691,56.10971362229103,10.0
692,60.11513157894736,10.0
693,59.76683436532508,10.0
694,54.15537925696594,10.0
695,56.946594427244584,10.0
696,63.58842879256967,10.0
697,57.02883126934984,10.0
698,58.53328173374613,10.0
699,60.95684984520124,10.0
700,55.7952786377709,10.0
701,61.05359907120743,10.0
702,58.910603715170275,10.0
703,57.609326625387,10.0
704,60.35216718266255,10.0
705,54.46497678018576,10.0
706,55.62596749226006,10.0
707,57.9140866873065,10.0
708,57.39647832817337,10.0
709,61.34868421052631,10.0
710,58.91544117647058,10.0
711,59.50561145510836,10.0
712,58.37364551083593,10.0
713,57.406153250774004,10.0
714,54.24729102167183,10.0
715,55.95007739938081,10.0
716,55.52438080495355,10.0
717,55.7952786377709,10.0
718,52.26393188854489,10.0
719,58.31075851393189,10.0
720,61.01006191950464,10.0
721,57.246517027863774,10.0
722,58.26722136222911,10.0
723,55.79044117647061,10.0
724,56.86435758513932,10.0
725,56.13390092879257,10.0
726,55.287345201238395,10.0
727,57.493227554179555,10.0
728,54.55688854489163,10.0
729,58.14628482972137,10.0
730,59.40402476780185,10.0
731,56.48703560371517,10.0
732,56.32739938080495,10.0
733,54.67298761609908,10.0
734,55.28250773993808,10.0
735,56.424148606811144,10.0
736,55.829140866873054,10.0
737,57.7592879256966,10.0
738,55.16640866873065,10.0
739,54.779411764705884,10.0
740,54.35371517027864,10.0
741,59.094427244582036,10.0
742,56.97561919504644,10.0
743,56.220975232198136,10.0
744,57.89957430340557,10.0
745,55.12770897832817,10.0
746,52.83475232198142,10.0
747,57.0046439628483,10.0
748,58.63486842105263,10.0
749,55.55340557275542,10.0
750,58.968653250774,10.0
751,54.67298761609907,10.0
752,55.52438080495355,10.0
753,56.8546826625387,10.0
754,56.63699690402478,10.0
755,60.97136222910217,10.0
756,54.51335139318884,10.0
757,54.68266253869969,10.0
758,54.11667956656347,10.0
759,59.370162538699695,10.0
760,54.76006191950464,10.0
761,56.50154798761611,10.0
762,56.71923374613003,10.0
763,58.339783281733745,10.0
764,59.35565015479875,10.0
765,57.37712848297213,10.0
766,55.95975232198143,10.0
767,52.88796439628483,10.0
768,56.5499226006192,10.0
769,56.85952012383901,10.0
770,56.56927244582044,10.0
771,53.95220588235294,10.0
772,54.1360294117647,10.0
773,54.88583591331268,10.0
774,58.62519349845201,10.0
775,56.42414860681114,10.0
776,57.64802631578947,10.0
777,60.17801857585139,10.0
778,57.90924922600619,10.0
779,53.54102167182663,10.0
780,55.44214396284829,10.0
781,54.16505417956657,10.0
782,55.77592879256966,10.0
783,58.88157894736842,10.0
784,57.082043343653254,10.0
785,57.47871517027864,10.0
786,62.238777089783284,10.0
787,57.74477554179566,10.0
788,53.02825077399381,10.0
789,55.161571207430335,10.0
790,60.15866873065016,10.0
791,56.69020897832818,10.0
792,56.76760835913313,10.0
793,56.390286377708975,10.0
794,55.616292569659436,10.0
795,60.09578173374613,10.0
796,54.431114551083596,10.0
797,56.78212074303405,10.0
798,57.55127708978328,10.0
799,58.015673374613,10.0
800,58.42202012383901,10.0
801,56.545085139318886,10.0
802,54.79876160990712,10.0
803,57.043343653250766,10.0
804,55.272832817337466,10.0
805,52.88796439628483,10.0
806,59.85390866873065,10.0
807,58.70743034055727,10.0
808,55.67917956656347,10.0
809,56.666021671826634,10.0
810,58.586493808049525,10.0
811,61.05359907120744,10.0
812,56.651509287925705,10.0
813,57.44485294117647,10.0
814,56.42898606811145,10.0
815,55.118034055727556,10.0
816,58.48490712074303,10.0
817,56.617647058823536,10.0
818,55.974264705882355,10.0
819,52.297794117647065,10.0
820,57.87538699690402,10.0
821,53.85061919504645,10.0
822,53.60390866873066,10.0
823,53.58939628482972,10.0
824,56.525735294117645,10.0
825,55.906540247678016,10.0
826,55.596942724458195,10.0
827,58.05437306501549,10.0
828,54.76973684210526,10.0
829,53.46845975232198,10.0
830,57.56578947368421,10.0
831,56.03231424148606,10.0
832,60.04740712074303,10.0
833,55.838815789473685,10.0
834,53.23142414860682,10.0
835,57.46904024767802,10.0
836,57.68188854489165,10.0
837,55.790441176470594,10.0
838,53.49748452012383,10.0
839,57.29972910216719,10.0
840,58.33010835913313,10.0
841,56.443498452012385,10.0
842,57.79315015479876,10.0
843,58.13660990712074,10.0
844,58.74613003095975,10.0
845,56.58862229102168,10.0
846,52.6702786377709,10.0
847,57.70123839009289,10.0
848,55.60178018575851,10.0
849,57.58513931888545,10.0
850,60.80688854489164,10.0
851,60.92298761609906,10.0
852,60.531153250774,10.0
853,52.30746904024768,10.0
854,59.04121517027863,10.0
855,57.19814241486068,10.0
856,57.60932662538699,10.0
857,56.564434984520126,10.0
858,59.568498452012385,10.0
859,57.381965944272444,10.0
860,58.204334365325074,10.0
861,55.147058823529406,10.0
862,58.562306501547994,10.0
863,58.189821981424146,10.0
864,57.73026315789474,10.0
865,58.460719814241486,10.0
866,56.13390092879257,10.0
867,51.62538699690401,10.0
868,58.12693498452012,10.0
869,52.91215170278638,10.0
870,58.441369969040245,10.0
871,57.435178018575854,10.0
872,56.78212074303406,10.0
873,57.61900154798762,10.0
874,52.70897832817337,10.0
875,56.25967492260062,10.0
876,56.34674922600618,10.0
877,54.21826625386998,10.0
878,59.12345201238391,10.0
879,56.51122291021672,10.0
880,59.002515479876166,10.0
881,59.43788699690402,10.0
882,58.286571207430335,10.0
883,57.938273993808046,10.0
884,55.85332817337461,10.0
885,59.25406346749225,10.0
886,58.073722910216716,10.0
887,61.097136222910194,10.0
888,56.28386222910216,10.0
889,55.350232198142415,10.0
890,59.09442724458204,10.0
891,56.172600619195045,10.0
892,57.08688080495355,10.0
893,57.66253869969041,10.0
894,57.43034055727554,10.0
895,53.724845201238395,10.0
896,60.695626934984524,10.0
897,59.52012383900928,10.0
898,55.35990712074303,10.0
899,55.89202786377709,10.0
900,56.22097523219814,10.0
901,61.35835913312694,10.0
902,53.961880804953545,10.0
903,51.70762383900929,10.0
904,60.574690402476776,10.0
905,58.446207430340564,10.0
906,53.21207430340557,10.0
907,55.29218266253869,10.0
908,59.21536377708978,10.0
909,55.495356037151694,10.0
910,55.935565015479874,10.0
911,58.8235294117647,10.0
912,58.69291795665635,10.0
913,55.27767027863777,10.0
914,55.601780185758514,10.0
915,58.455882352941174,10.0
916,55.91621517027864,10.0
917,60.55050309597523,10.0
918,58.04953560371518,10.0
919,57.2078173374613,10.0
920,57.01431888544891,10.0
921,58.576818885448915,10.0
922,52.883126934984524,10.0
923,55.016447368421055,10.0
924,55.804953560371516,10.0
925,57.5609520123839,10.0
926,56.99980650154799,10.0
927,54.66815015479875,10.0
928,57.227167182662534,10.0
929,55.92105263157895,10.0
930,56.72890866873065,10.0
931,58.55263157894737,10.0
932,57.58513931888545,10.0
933,54.74554953560372,10.0
934,57.85119969040248,10.0
935,58.03018575851393,10.0
936,58.08339783281734,10.0
937,55.011609907120736,10.0
938,54.716524767801864,10.0
939,60.003869969040245,10.0
940,54.47948916408669,10.0
941,55.500193498452006,10.0
942,57.18846749226006,10.0
943,61.13099845201239,10.0
944,57.1594427244582,10.0
945,57.57546439628482,10.0
946,53.482972136222905,10.0
947,55.7952786377709,10.0
948,54.91969814241485,10.0
949,56.482198142414866,10.0
950,57.54643962848298,10.0
951,56.2983746130031,10.0
952,55.064821981424146,10.0
953,54.566563467492266,10.0
954,54.52786377708978,10.0
955,60.9375,10.0
956,53.720007739938076,10.0
957,58.755804953560364,10.0
958,60.342492260061924,10.0
959,55.52921826625387,10.0
960,57.54160216718267,10.0
961,59.08958978328174,10.0
962,52.041408668730654,10.0
963,59.40886222910217,10.0
964,54.36822755417956,10.0
965,53.86513157894737,10.0
966,55.437306501547994,10.0
967,59.970007739938076,10.0
968,56.830495356037154,10.0
969,55.843653250774,10.0
970,55.61629256965944,10.0
971,58.00116099071208,10.0
972,56.25483746130031,10.0
973,55.906540247678016,10.0
974,54.07797987616099,10.0
975,58.19949690402477,10.0
976,55.1422213622291,10.0
977,55.43246904024768,10.0
978,51.649574303405565,10.0
979,60.7391640866873,10.0
980,58.45588235294118,10.0
981,59.56366099071208,10.0
982,56.10487616099071,10.0
983,54.07797987616099,10.0
984,58.13177244582043,10.0
985,57.07236842105263,10.0
986,58.18498452012384,10.0
987,56.864357585139324,10.0
988,57.333591331269346,10.0
989,56.91273219814241,10.0
990,56.73858359133126,10.0
991,59.54431114551084,10.0
992,55.30185758513931,10.0
993,55.74690402476781,10.0
994,61.31482198142414,10.0
995,59.51044891640868,10.0
996,52.63641640866873,10.0
997,57.2078173374613,10.0
998,54.49400154798762,10.0
999,59.51044891640866,10.0
1000,60.705301857585134,10.0
1001,58.28173374613004,10.0
1002,58.639705882352935,10.0
1003,54.494001547987615,10.0
1004,58.55263157894737,10.0
1005,55.766253869969034,10.0
1006,57.51741486068111,10.0
1007,54.329527863777095,10.0
1008,59.25890092879257,10.0
1009,57.83668730650156,10.0
1010,55.11803405572756,10.0
1011,55.98393962848298,10.0
1012,58.1172600619195,10.0
1013,60.13931888544892,10.0
1014,60.41505417956655,10.0
1015,54.223103715170275,10.0
1016,59.23955108359133,10.0
1017,58.218846749226,10.0
1018,57.29005417956655,10.0
1019,55.26799535603716,10.0
1020,56.60313467492261,10.0
1021,58.165634674922615,10.0
1022,54.99709752321981,10.0
1023,56.60797213622291,10.0
1024,53.76354489164087,10.0
1025,57.29972910216719,10.0
1026,58.06404798761611,10.0
1027,54.373065015479874,10.0
1028,61.42608359133128,10.0
1029,58.731617647058826,10.0
1030,56.73374613003096,10.0
1031,56.46284829721362,10.0
1032,57.435178018575854,10.0
1033,59.69427244582044,10.0
1034,58.22368421052632,10.0
1035,56.26934984520123,10.0
1036,57.61900154798762,10.0
1037,58.16079721362229,10.0
1038,57.0578560371517,10.0
1039,54.36822755417957,10.0
1040,56.30804953560372,10.0
1041,59.171826625387006,10.0
1042,58.85255417956655,10.0
1043,54.136029411764696,10.0
1044,57.92859907120744,10.0
1045,55.77592879256967,10.0
1046,52.04624613003096,10.0
1047,56.511222910216716,10.0
1048,53.88931888544891,10.0
1049,60.62306501547988,10.0
1050,53.82159442724458,10.0
1051,57.95762383900929,10.0
1052,53.52167182662539,10.0
1053,55.21478328173374,10.0
1054,58.55263157894737,10.0
1055,58.320433436532504,10.0
1056,57.37712848297214,10.0
1057,60.00870743034055,10.0
1058,51.95917182662539,10.0
1059,59.65073529411764,10.0
1060,58.484907120743024,10.0
1061,54.90518575851394,10.0
1062,53.7780572755418,10.0
1063,53.5797213622291,10.0
1064,55.36474458204335,10.0
1065,56.44833591331268,10.0
1066,58.86222910216718,10.0
1067,56.66602167182662,10.0
1068,58.31075851393189,10.0
1069,56.34191176470589,10.0
1070,57.764125386996895,10.0
1071,56.19678792569659,10.0
1072,56.16776315789474,10.0
1073,55.96942724458205,10.0
1074,56.08552631578948,10.0
1075,54.5859133126935,10.0
1076,58.03018575851394,10.0
1077,53.47329721362229,10.0
1078,57.33359133126936,10.0
1079,59.26373839009288,10.0
1080,57.83668730650155,10.0
1081,57.79798761609907,10.0
1082,59.48142414860682,10.0
1083,54.547213622291025,10.0
1084,56.627321981424146,10.0
1085,60.85042569659442,10.0
1086,54.22310371517027,10.0
1087,54.70201238390093,10.0
1088,56.02747678018576,10.0
1089,56.59345975232198,10.0
1090,55.8968653250774,10.0
1091,55.70336687306502,10.0
1092,60.48761609907121,10.0
1093,57.48839009287926,10.0
1094,58.41234520123839,10.0
1095,58.36880804953561,10.0
1096,60.23606811145511,10.0
1097,57.60448916408669,10.0
1098,55.02128482972136,10.0
1099,55.95007739938082,10.0
1100,53.2217492260062,10.0
1101,58.38815789473684,10.0
1102,57.991486068111456,10.0
1103,56.23548761609907,10.0
1104,54.91969814241486,10.0
1105,58.75096749226007,10.0
1106,56.201625386996895,10.0
1107,53.183049535603715,10.0
1108,54.7890866873065,10.0
1109,58.388157894736835,10.0
1110,56.540247678018574,10.0
1111,53.91350619195046,10.0
1112,58.305921052631575,10.0
1113,59.205688854489175,10.0
1114,56.1000386996904,10.0
1115,56.78212074303405,10.0
1116,58.18498452012384,10.0
1117,50.92879256965945,10.0
1118,58.64938080495356,10.0
1119,58.58649380804953,10.0
1120,54.237616099071204,10.0
1121,61.40673374613004,10.0
1122,58.24787151702785,10.0
1123,57.13525541795665,10.0
1124,58.99767801857586,10.0
1125,54.624613003095966,10.0
1126,57.86571207430342,10.0
1127,59.50077399380805,10.0
1128,58.30108359133128,10.0
1129,55.50503095975232,10.0
1130,55.43246904024767,10.0
1131,55.96458978328174,10.0
1132,54.5375386996904,10.0
1133,57.32391640866873,10.0
1134,57.89957430340557,10.0
1135,57.18363003095975,10.0
1136,55.582430340557266,10.0
1137,54.21342879256966,10.0
1138,58.726780185758514,10.0
1139,59.26857585139318,10.0
1140,55.07449690402476,10.0
1141,57.95762383900929,10.0
1142,58.91544117647059,10.0
1143,54.72136222910217,10.0
1144,57.75928792569659,10.0
1145,59.03637770897833,10.0
1146,55.824303405572756,10.0
1147,54.46981424148607,10.0
1148,56.52089783281733,10.0
1149,57.02399380804953,10.0
1150,55.572755417956664,10.0
1151,54.51818885448915,10.0
1152,55.17608359133127,10.0
1153,56.82565789473684,10.0
1154,54.93904798761611,10.0
1155,51.214202786377705,10.0
1156,55.27283281733746,10.0
1157,57.236842105263165,10.0
1158,55.16157120743034,10.0
1159,55.92589009287926,10.0
1160,53.889318885448915,10.0
1161,56.54992260061919,10.0
1162,60.057082043343655,10.0
1163,56.6031346749226,10.0
1164,57.183630030959755,10.0
1165,55.91137770897833,10.0
1166,55.229295665634666,10.0
1167,58.934791021671835,10.0
1168,56.67085913312694,10.0
1169,55.34539473684211,10.0
1170,55.35990712074304,10.0
1171,54.70201238390092,10.0
1172,56.68053405572755,10.0
1173,60.995549535603715,10.0
1174,58.610681114551085,10.0
1175,54.11667956656347,10.0
1176,55.06965944272446,10.0
1177,54.24729102167182,10.0
1178,56.932082043343655,10.0
1179,55.6453173374613,10.0
1180,58.55746904024768,10.0
1181,57.1594427244582,10.0
1182,58.45588235294118,10.0
1183,56.83049535603715,10.0
1184,55.63564241486068,10.0
1185,59.26373839009289,10.0
1186,59.53947368421053,10.0
1187,55.24864551083592,10.0
1188,56.93691950464395,10.0
1189,57.79315015479876,10.0
1190,60.052244582043336,10.0
1191,55.703366873065015,10.0
1192,55.76625386996904,10.0
1193,57.406153250774,10.0
1194,55.988777089783284,10.0
1195,54.760061919504636,10.0
1196,58.3639705882353,10.0
1197,55.95491486068111,10.0
1198,55.35506965944273,10.0
1199,56.66118421052632,10.0
1200,59.05089009287924,10.0
1201,54.57140092879257,10.0
1202,55.23413312693498,10.0
1203,56.27902476780186,10.0
1204,56.03715170278638,10.0
1205,54.29566563467492,10.0
1206,56.932082043343655,10.0
1207,58.39299535603716,10.0
1208,59.44272445820433,10.0
1209,58.455882352941174,10.0
1210,55.61145510835914,10.0
1211,55.29218266253869,10.0
1212,56.68537151702786,10.0
1213,57.4593653250774,10.0
1214,58.455882352941174,10.0
1215,56.94175696594427,10.0
1216,56.48219814241486,10.0
1217,58.96865325077399,10.0
1218,57.76412538699691,10.0
1219,58.765479876160995,10.0
1220,58.18014705882353,10.0
1221,59.602360681114554,10.0
1222,55.02128482972136,10.0
1223,55.48084365325079,10.0
1224,57.12074303405573,10.0
1225,56.85468266253871,10.0
1226,61.59539473684211,10.0
1227,56.20646284829722,10.0
1228,55.46149380804953,10.0
1229,59.70394736842107,10.0
1230,53.93285603715171,10.0
1231,59.43788699690401,10.0
1232,59.974845201238395,10.0
1233,57.6625386996904,10.0
1234,54.648800309597526,10.0
1235,53.10565015479875,10.0
1236,58.1124226006192,10.0
1237,58.88641640866873,10.0
1238,62.190402476780186,10.0
1239,58.460719814241486,10.0
1240,56.02747678018576,10.0
1241,54.47465170278638,10.0
1242,53.45878482972136,10.0
1243,55.90170278637771,10.0
1244,55.14705882352942,10.0
1245,57.59481424148606,10.0
1246,60.04740712074303,10.0
1247,55.335719814241486,10.0
1248,61.808243034055735,10.0
1249,56.97078173374614,10.0
1250,60.327979876160995,10.0
1251,57.53676470588235,10.0
1252,53.97639318885449,10.0
1253,58.659055727554176,10.0
1254,59.81520897832817,10.0
1255,57.76412538699691,10.0
1256,56.549922600619205,10.0
1257,54.087654798761605,10.0
1258,55.34539473684212,10.0
1259,56.00328947368421,10.0
1260,57.37229102167183,10.0
1261,53.400735294117645,10.0
1262,55.606617647058826,10.0
1263,57.39164086687306,10.0
1264,57.6673761609907,10.0
1265,55.70820433436532,10.0
1266,53.942530959752325,10.0
1267,53.34752321981425,10.0
1268,55.80495356037152,10.0
1269,54.87132352941177,10.0
1270,61.653444272445824,10.0
1271,58.42685758513932,10.0
1272,60.23606811145511,10.0
1273,58.209171826625386,10.0
1274,55.75174148606811,10.0
1275,56.782120743034056,10.0
1276,57.63835139318885,10.0
1277,56.30804953560372,10.0
1278,55.06965944272446,10.0
1279,56.06617647058823,10.0
1280,57.23684210526315,10.0
1281,57.754450464396285,10.0
1282,54.13119195046439,10.0
1283,61.247097523219814,10.0
1284,52.74767801857586,10.0
1285,56.19678792569658,10.0
1286,52.46710526315789,10.0
1287,57.14493034055727,10.0
1288,52.92666408668732,10.0
1289,58.073722910216716,10.0
1290,57.1062306501548,10.0
1291,61.76470588235294,10.0
1292,59.065402476780186,10.0
1293,57.82217492260062,10.0
1294,54.42627708978328,10.0
1295,55.50019349845202,10.0
1296,58.88157894736843,10.0
1297,56.87886996904024,10.0
1298,55.050309597523224,10.0
1299,61.57604489164087,10.0
1300,59.06056501547988,10.0
1301,56.056501547987615,10.0
1302,59.55882352941177,10.0
1303,59.307275541795676,10.0
1304,54.29082817337462,10.0
1305,55.437306501547994,10.0
1306,56.92240712074303,10.0
1307,57.33842879256966,10.0
1308,53.9328560371517,10.0
1309,53.420085139318886,10.0
1310,54.136029411764696,10.0
1311,54.26180340557276,10.0
1312,55.35023219814242,10.0
1313,53.46845975232197,10.0
1314,58.528444272445824,10.0
1315,55.113196594427244,10.0
1316,56.20162538699691,10.0
1317,58.33494582043343,10.0
1318,54.745549535603715,10.0
1319,54.72619969040247,10.0
1320,55.16157120743034,10.0
1321,57.101393188854495,10.0
1322,60.00386996904025,10.0
1323,59.16215170278638,10.0
1324,58.310758513931894,10.0
1325,58.00116099071207,10.0
1326,58.29140866873064,10.0
1327,55.064821981424146,10.0
1328,55.49535603715171,10.0
1329,56.699883900928796,10.0
1330,57.130417956656345,10.0
1331,55.4953560371517,10.0
1332,56.78695820433436,10.0
1333,53.40073529411765,10.0
1334,58.50909442724458,10.0
1335,56.58378482972137,10.0
1336,56.10003869969041,10.0
1337,55.461493808049525,10.0
1338,55.29218266253871,10.0
1339,56.03715170278639,10.0
1340,61.22774767801858,10.0
1341,56.15808823529411,10.0
1342,61.39705882352941,10.0
1343,59.070239938080505,10.0
1344,54.8858359133127,10.0
1345,60.01838235294117,10.0
1346,59.38467492260061,10.0
1347,57.98181114551084,10.0
1348,58.23335913312693,10.0
1349,58.22852167182663,10.0
1350,55.350232198142415,10.0
1351,55.205108359133135,10.0
1352,54.42143962848297,10.0
1353,57.023993808049525,10.0
1354,53.168537151702786,10.0
1355,56.64667182662539,10.0
1356,60.00870743034056,10.0
1357,58.378482972136226,10.0
1358,57.9140866873065,10.0
1359,54.7939241486068,10.0
1360,57.11106811145512,10.0
1361,58.2236842105263,10.0
1362,53.758707430340564,10.0
1363,56.41931114551084,10.0
1364,56.36609907120744,10.0
1365,55.22929566563467,10.0
1366,59.5249613003096,10.0
1367,54.092492260061924,10.0
1368,54.8374613003096,10.0
1369,57.74477554179567,10.0
1370,56.675696594427244,10.0
1371,57.7109133126935,10.0
1372,55.77592879256966,10.0
1373,55.96942724458204,10.0
1374,57.715750773993804,10.0
1375,57.604489164086694,10.0
1376,56.898219814241486,10.0
1377,56.29353715170278,10.0
1378,54.90518575851394,10.0
1379,55.38893188854488,10.0
1380,55.67434210526316,10.0
1381,56.883707430340564,10.0
1382,53.53618421052631,10.0
1383,58.625193498452006,10.0
1384,57.638351393188856,10.0
1385,53.30882352941176,10.0
1386,54.46013931888545,10.0
1387,59.539473684210535,10.0
1388,56.91756965944273,10.0
1389,53.482972136222905,10.0
1390,55.417956656346746,10.0
1391,55.238970588235304,10.0
1392,58.422020123839,10.0
1393,55.52921826625387,10.0
1394,58.513931888544896,10.0
1395,55.67434210526316,10.0
1396,58.620356037151694,10.0
1397,58.36880804953561,10.0
1398,58.60584365325077,10.0
1399,57.391640866873075,10.0
1400,59.21536377708978,10.0
1401,57.256191950464384,10.0
1402,53.6813080495356,10.0
1403,60.076431888544896,10.0
1404,54.76973684210526,10.0
1405,56.43866099071207,10.0
1406,62.01625386996904,10.0
1407,56.0516640866873,10.0
1408,53.840944272445824,10.0
1409,58.43169504643963,10.0
1410,56.31288699690403,10.0
1411,52.93150154798762,10.0
1412,54.36822755417956,10.0
1413,57.788312693498455,10.0
1414,58.005998452012385,10.0
1415,56.26451238390092,10.0
1416,54.87132352941176,10.0
1417,59.505611455108365,10.0
1418,57.93343653250775,10.0
1419,53.87480650154799,10.0
1420,55.50986842105264,10.0
1421,53.46362229102167,10.0
1422,61.232585139318886,10.0
1423,54.721362229102176,10.0
1424,56.1484133126935,10.0
1425,57.37712848297213,10.0
1426,53.869969040247675,10.0
1427,53.434597523219814,10.0
1428,55.417956656346746,10.0
1429,54.77941176470588,10.0
1430,57.246517027863774,10.0
1431,57.43517801857585,10.0
1432,57.87538699690401,10.0
1433,57.59481424148607,10.0
1434,59.33630030959752,10.0
1435,58.43653250773994,10.0
1436,52.6219040247678,10.0
1437,57.111068111455104,10.0
1438,56.88854489164086,10.0
1439,57.986648606811144,10.0
1440,56.32739938080495,10.0
1441,55.88719040247678,10.0
1442,58.073722910216716,10.0
1443,55.819465944272444,10.0
1444,54.51818885448917,10.0
1445,57.14493034055727,10.0
1446,54.82778637770898,10.0
1447,58.1656346749226,10.0
1448,58.67356811145511,10.0
1449,57.25135448916408,10.0
1450,57.851199690402474,10.0
1451,57.483552631578945,10.0
1452,57.101393188854495,10.0
1453,56.27418730650155,10.0
1454,57.69640092879258,10.0
1455,56.525735294117645,10.0
1456,55.86784055727554,10.0
1457,54.997097523219814,10.0
1458,54.37306501547988,10.0
1459,57.22232972136223,10.0
1460,56.361261609907125,10.0
1461,56.17260061919505,10.0
1462,57.33842879256966,10.0
1463,59.200851393188856,10.0
1464,59.07991486068112,10.0
1465,52.83475232198142,10.0
1466,55.91137770897832,10.0
1467,59.83939628482972,10.0
1468,53.279798761609904,10.0
1469,56.32739938080495,10.0
1470,53.845781733746136,10.0
1471,56.13390092879257,10.0
1472,62.04527863777089,10.0
1473,56.06133900928792,10.0
1474,57.217492260061924,10.0
1475,56.07585139318886,10.0
1476,55.67917956656347,10.0
1477,58.11726006191951,10.0
1478,62.58223684210527,10.0
1479,54.41660216718267,10.0
1480,58.378482972136226,10.0
1481,54.49400154798761,10.0
1482,58.22852167182663,10.0
1483,56.308049535603715,10.0
1484,54.71652476780186,10.0
1485,55.67434210526316,10.0
1486,57.04334365325077,10.0
1487,58.446207430340564,10.0
1488,57.285216718266255,10.0
1489,53.49264705882353,10.0
1490,59.46691176470589,10.0
1491,56.77244582043345,10.0
1492,53.11048761609908,10.0
1493,55.51470588235294,10.0
1494,56.82082043343652,10.0
1495,58.86222910216719,10.0
1496,56.00328947368421,10.0
1497,57.038506191950475,10.0
1498,50.06288699690403,10.0
1499,57.933436532507734,10.0
1500,56.211300309597526,10.0
1501,57.149767801857585,10.0
1502,54.75522445820434,10.0
1503,60.1780185758514,10.0
1504,54.26664086687306,10.0
1505,56.47252321981424,10.0
1506,57.870549535603715,10.0
1507,56.25,10.0
1508,58.750967492260074,10.0
1509,57.92859907120743,10.0
1510,56.2016253869969,10.0
1511,59.52012383900928,10.0
1512,57.517414860681114,10.0
1513,59.747484520123834,10.0
1514,57.46904024767802,10.0
1515,54.058630030959755,10.0
1516,56.91273219814242,10.0
1517,60.31346749226006,10.0
1518,56.458010835913306,10.0
1519,58.49458204334366,10.0
1520,57.38196594427245,10.0
1521,55.006772445820445,10.0
1522,54.90518575851393,10.0
1523,57.81249999999999,10.0
1524,55.606617647058826,10.0
1525,59.684597523219814,10.0
1526,59.58784829721362,10.0
1527,59.12345201238389,10.0
1528,53.26044891640868,10.0
1529,60.17318111455108,10.0
1530,56.220975232198136,10.0
1531,55.06965944272446,10.0
1532,54.65847523219814,10.0
1533,58.005998452012385,10.0
1534,54.90518575851394,10.0
1535,54.324690402476776,10.0
1536,59.2734133126935,10.0
1537,59.24438854489165,10.0
1538,55.05514705882353,10.0
1539,53.48780959752322,10.0
1540,58.813854489164086,10.0
1541,53.49264705882353,10.0
1542,55.93556501547988,10.0
1543,54.494001547987615,10.0
1544,55.297020123839005,10.0
1545,56.37093653250775,10.0
1546,58.175309597523224,10.0
1547,55.079334365325074,10.0
1548,54.07797987616099,10.0
1549,58.073722910216716,10.0
1550,56.31288699690402,10.0
1551,57.08204334365326,10.0
1552,55.88719040247678,10.0
1553,56.08552631578948,10.0
1554,55.993614551083596,10.0
1555,58.654218266253864,10.0
1556,50.8562306501548,10.0
1557,56.927244582043336,10.0
1558,55.640479876160995,10.0
1559,56.87886996904026,10.0
1560,60.22639318885448,10.0
1561,56.26934984520124,10.0
1562,54.78424922600619,10.0
1563,54.46981424148606,10.0
1564,59.196013931888544,10.0
1565,55.563080495356026,10.0
1566,55.1857585139319,10.0
1567,59.0750773993808,10.0
1568,59.84907120743034,10.0
1569,57.31907894736841,10.0
1570,57.67705108359134,10.0
1571,51.75116099071207,10.0
1572,58.276896284829725,10.0
1573,57.29005417956655,10.0
1574,52.7234907120743,10.0
1575,56.12422600619195,10.0
1576,52.10429566563467,10.0
1577,54.86164860681113,10.0
1578,56.680534055727556,10.0
1579,58.14628482972136,10.0
1580,61.10681114551082,10.0
1581,57.80766253869969,10.0
1582,57.31424148606811,10.0
1583,58.59616873065016,10.0
1584,54.93421052631578,10.0
1585,52.510642414860676,10.0
1586,57.285216718266255,10.0
1587,54.34887770897833,10.0
1588,56.68537151702786,10.0
1589,59.234713622291025,10.0
1590,56.9078947368421,10.0
1591,54.31985294117647,10.0
1592,57.822174922600624,10.0
1593,56.27418730650155,10.0
1594,53.30882352941177,10.0
1595,52.2736068111455,10.0
1596,56.932082043343655,10.0
1597,58.73161764705883,10.0
1598,55.95491486068112,10.0
1599,54.05379256965944,10.0
1600,58.035023219814256,10.0
1601,57.22232972136223,10.0
1602,55.82430340557275,10.0
1603,59.53463622291022,10.0
1604,57.27070433436533,10.0
1605,58.23335913312694,10.0
1606,56.25000000000001,10.0
1607,59.75715944272446,10.0
1608,54.93904798761611,10.0
1609,57.401315789473685,10.0
1610,59.71362229102167,10.0
1611,55.43246904024769,10.0
1612,59.72813467492261,10.0
1613,58.44136996904026,10.0
1614,58.88641640866873,10.0
1615,51.49477554179566,10.0
1616,54.90034829721362,10.0
1617,50.05321207430341,10.0
1618,56.840170278637764,10.0
1619,58.50425696594427,10.0
1620,55.567917956656345,10.0
1621,56.56927244582043,10.0
1622,55.78560371517029,10.0
1623,60.308630030959755,10.0
1624,54.81327399380805,10.0
1625,55.92589009287925,10.0
1626,55.959752321981426,10.0
1627,56.87403250773994,10.0
1628,57.75445046439628,10.0
1629,52.96536377708978,10.0
1630,52.65576625386996,10.0
1631,58.475232198142415,10.0
1632,57.08204334365325,10.0
1633,59.01219040247678,10.0
1634,56.878869969040245,10.0
1635,58.591331269349844,10.0
1636,54.49883900928792,10.0
1637,57.53192724458205,10.0
1638,56.124226006191954,10.0
1639,51.32546439628483,10.0
1640,56.87886996904024,10.0
1641,58.542956656346746,10.0
1642,56.496710526315795,10.0
1643,53.347523219814256,10.0
1644,56.177438080495364,10.0
1645,57.52708978328173,10.0
1646,57.2561919504644,10.0
1647,55.49051857585139,10.0
1648,56.64183436532509,10.0
1649,58.86706656346749,10.0
1650,55.91621517027863,10.0
1651,53.429760061919495,10.0
1652,60.79721362229103,10.0
1653,57.49806501547988,10.0
1654,54.4359520123839,10.0
1655,57.348103715170275,10.0
1656,59.24438854489164,10.0
1657,55.07449690402477,10.0
1658,53.74419504643962,10.0
1659,59.34113777089783,10.0
1660,58.00116099071208,10.0
1661,57.1546052631579,10.0
1662,56.33707430340557,10.0
1663,54.27147832817337,10.0
1664,60.04256965944272,10.0
1665,54.24729102167183,10.0
1666,55.548568111455104,10.0
1667,59.30243808049536,10.0
1668,56.206462848297214,10.0
1669,57.522252321981426,10.0
1670,57.79798761609907,10.0
1671,57.82701238390093,10.0
1672,55.96458978328173,10.0
1673,56.08552631578947,10.0
1674,55.49051857585139,10.0
1675,58.25754643962849,10.0
1676,55.954914860681114,10.0
1677,57.338428792569665,10.0
1678,50.81269349845201,10.0
1679,57.986648606811144,10.0
1680,53.66195820433436,10.0
1681,58.98800309597524,10.0
1682,54.784249226006196,10.0
1683,58.054373065015476,10.0
1684,57.98181114551083,10.0
1685,51.06424148606811,10.0
1686,54.86648606811145,10.0
1687,51.25290247678019,10.0
1688,60.173181114551085,10.0
1689,57.2561919504644,10.0
1690,58.349458204334375,10.0
1691,56.254837461300305,10.0
1692,57.52225232198142,10.0
1693,58.184984520123834,10.0
1694,57.68672600619195,10.0
1695,58.72194272445821,10.0
1696,59.708784829721345,10.0
1697,54.73587461300309,10.0
1698,59.6265479876161,10.0
1699,57.59965170278638,10.0
1700,54.315015479876166,10.0
1701,59.007352941176464,10.0
1702,55.9984520123839,10.0
1703,62.886996904024755,10.0
1704,57.88989938080494,10.0
1705,58.422020123839005,10.0
1706,56.70472136222911,10.0
1707,58.6687306501548,10.0
1708,63.099845201238395,10.0
1709,57.227167182662534,10.0
1710,60.424729102167184,10.0
1711,56.83533281733746,10.0
1712,55.471168730650156,10.0
1713,56.5015479876161,10.0
1714,55.01644736842105,10.0
1715,56.477360681114554,10.0
1716,58.48490712074304,10.0
1717,55.90170278637771,10.0
1718,55.485681114551085,10.0
1719,54.09732972136223,10.0
1720,57.89957430340557,10.0
1721,54.39725232198142,10.0
1722,56.52089783281735,10.0
1723,58.26238390092879,10.0
1724,57.420665634674926,10.0
1725,56.16292569659443,10.0
1726,56.81598297213623,10.0
1727,58.8815789473684,10.0
1728,55.83881578947369,10.0
1729,56.09520123839008,10.0
1730,56.28869969040248,10.0
1731,57.53192724458204,10.0
1732,59.87325851393188,10.0
1733,54.88099845201238,10.0
1734,58.07856037151702,10.0
1735,53.874806501547994,10.0
1736,61.49380804953559,10.0
1737,57.44485294117648,10.0
1738,57.47871517027863,10.0
1739,54.27631578947368,10.0
1740,59.20568885448916,10.0
1741,57.37712848297214,10.0
1742,56.690208978328165,10.0
1743,54.91969814241486,10.0
1744,55.27767027863778,10.0
1745,55.538893188854495,10.0
1746,58.53811919504644,10.0
1747,55.94040247678018,10.0
1748,53.971555727554176,10.0
1749,56.25,10.0
1750,58.2091718266254,10.0
1751,59.13312693498453,10.0
1752,56.56927244582043,10.0
1753,54.997097523219814,10.0
1754,55.12770897832817,10.0
1755,53.869969040247675,10.0
1756,60.31830495356038,10.0
1757,57.63351393188854,10.0
1758,57.7060758513932,10.0
1759,58.00116099071208,10.0
1760,57.64318885448917,10.0
1761,57.522252321981426,10.0
1762,56.04198916408668,10.0
1763,56.33707430340558,10.0
1764,55.54856811145511,10.0
1765,56.965944272445824,10.0
1766,56.57410990712075,10.0
1767,55.272832817337466,10.0
1768,54.95839783281733,10.0
1769,64.10603715170278,10.0
1770,56.17260061919505,10.0
1771,57.807662538699695,10.0
1772,51.523800309597526,10.0
1773,59.72813467492261,10.0
1774,55.12770897832817,10.0
1775,57.5125773993808,10.0
1776,52.84442724458204,10.0
1777,62.108165634674926,10.0
1778,55.65982972136222,10.0
1779,53.66195820433437,10.0
1780,59.01219040247678,10.0
1781,55.67917956656347,10.0
1782,56.43382352941177,10.0
1783,58.57198142414862,10.0
1784,58.12693498452012,10.0
1785,56.84500773993808,10.0
1786,54.57140092879257,10.0
1787,57.565789473684205,10.0
1788,55.78560371517027,10.0
1789,53.85061919504644,10.0
1790,52.36068111455108,10.0
1791,54.2859907120743,10.0
1792,53.44910990712074,10.0
1793,55.6985294117647,10.0
1794,57.43034055727554,10.0
1795,62.64512383900927,10.0
1796,54.43111455108358,10.0
1797,55.90170278637771,10.0
1798,52.259094427244584,10.0
1799,57.98664860681114,10.0
1800,58.87190402476781,10.0
1801,57.531927244582036,10.0
1802,55.42763157894736,10.0
1803,52.196207430340564,10.0
1804,51.98819659442724,10.0
1805,55.66466718266254,10.0
1806,55.05514705882353,10.0
1807,57.89473684210526,10.0
1808,52.68479102167182,10.0
1809,54.50367647058823,10.0
1810,56.811145510835914,10.0
1811,57.89957430340558,10.0
1812,56.72890866873065,10.0
1813,53.453947368421055,10.0
1814,57.198142414860676,10.0
1815,55.24380804953561,10.0
1816,56.04682662538699,10.0
1817,60.110294117647065,10.0
1818,54.1844040247678,10.0
1819,53.39106037151702,10.0
1820,56.182275541795676,10.0
1821,59.17182662538699,10.0
1822,56.540247678018574,10.0
1823,56.656346749226,10.0
1824,57.27554179566564,10.0
1825,59.689434984520126,10.0
1826,57.67705108359133,10.0
1827,55.084171826625386,10.0
1828,59.23955108359132,10.0
1829,55.5969427244582,10.0
1830,56.59829721362229,10.0
1831,57.19814241486068,10.0
1832,61.68246904024767,10.0
1833,58.044698142414866,10.0
1834,60.41021671826625,10.0
1835,56.395123839009294,10.0
1836,58.015673374612994,10.0
1837,57.686726006191954,10.0
1838,54.058630030959755,10.0
1839,56.38544891640866,10.0
1840,56.056501547987615,10.0
1841,59.79102167182663,10.0
1842,58.4655572755418,10.0
1843,60.269930340557266,10.0
1844,57.49806501547988,10.0
1845,53.13951238390092,10.0
1846,54.83262383900929,10.0
1847,60.04740712074303,10.0
1848,58.52360681114551,10.0
1849,56.274187306501545,10.0
1850,54.7358746130031,10.0
1851,55.86784055727554,10.0
1852,58.39299535603715,10.0
1853,58.238196594427244,10.0
1854,54.88099845201237,10.0
1855,59.71845975232198,10.0
1856,56.11938854489164,10.0
1857,58.039860681114554,10.0
1858,57.26586687306502,10.0
1859,55.606617647058826,10.0
1860,59.4814241486068,10.0
1861,55.67434210526315,10.0
1862,57.967298761609904,10.0
1863,56.53057275541795,10.0
1864,57.47871517027864,10.0
1865,56.075851393188856,10.0
1866,61.97755417956657,10.0
1867,55.90654024767802,10.0
1868,54.697174922600624,10.0
1869,56.89821981424149,10.0
1870,54.67298761609907,10.0
1871,57.280379256965944,10.0
1872,58.726780185758514,10.0
1873,55.205108359133135,10.0
1874,60.18285603715171,10.0
1875,55.703366873065015,10.0
1876,52.931501547987615,10.0
1877,54.55205108359133,10.0
1878,58.27689628482972,10.0
1879,56.73858359133127,10.0
1880,58.33978328173376,10.0
1881,58.56714396284829,10.0
1882,57.1546052631579,10.0
1883,58.83804179566564,10.0
1884,58.38332043343654,10.0
1885,60.24090557275543,10.0
1886,58.62035603715171,10.0
1887,54.33920278637771,10.0
1888,51.22871517027863,10.0
1889,55.722716718266255,10.0
1890,56.29837461300309,10.0
1891,54.97774767801858,10.0
1892,57.32875386996904,10.0
1893,57.88989938080495,10.0
1894,58.494582043343655,10.0
1895,59.012190402476776,10.0
1896,56.58378482972135,10.0
1897,57.91408668730651,10.0
1898,51.85274767801858,10.0
1899,55.901702786377705,10.0
1900,58.22852167182663,10.0
1901,56.835332817337466,10.0
1902,57.14493034055728,10.0
1903,52.42356811145512,10.0
1904,53.5265092879257,10.0
1905,55.77109133126935,10.0
1906,54.54721362229102,10.0
1907,56.89338235294117,10.0
1908,53.89415634674923,10.0
1909,58.151122291021665,10.0
1910,60.41989164086687,10.0
1911,54.10216718266254,10.0
1912,55.02128482972137,10.0
1913,54.948722910216716,10.0
1914,56.143575851393194,10.0
1915,57.31907894736842,10.0
1916,57.67705108359133,10.0
1917,55.16640866873065,10.0
1918,58.949303405572756,10.0
1919,55.04547213622291,10.0
1920,54.808436532507756,10.0
1921,50.880417956656345,10.0
1922,53.821594427244584,10.0
1923,54.077979876160995,10.0
1924,59.41369969040248,10.0
1925,58.151122291021665,10.0
1926,59.68943498452012,10.0
1927,57.24651702786378,10.0
1928,56.49187306501547,10.0
1929,57.0094814241486,10.0
1930,54.14086687306502,10.0
1931,57.6141640866873,10.0
1932,59.549148606811144,10.0
1933,53.79256965944271,10.0
1934,52.65576625386997,10.0
1935,56.13390092879257,10.0
1936,54.49883900928793,10.0
1937,53.778057275541805,10.0
1938,57.251354489164086,10.0
1939,55.853328173374614,10.0
1940,55.96942724458205,10.0
1941,53.74903250773994,10.0
1942,57.42066563467491,10.0
1943,59.703947368421055,10.0
1944,56.16776315789474,10.0
1945,57.81733746130031,10.0
1946,56.23548761609907,10.0
1947,58.344620743034056,10.0
1948,54.71652476780186,10.0
1949,61.24226006191951,10.0
1950,55.20994582043345,10.0
1951,58.20433436532508,10.0
1952,58.059210526315795,10.0
1953,55.38409442724458,10.0
1954,54.256965944272444,10.0
1955,55.098684210526315,10.0
1956,54.14086687306501,10.0
1957,56.404798761609904,10.0
1958,53.35719814241486,10.0
1959,54.11184210526316,10.0
1960,57.44001547987616,10.0
1961,59.578173374613,10.0
1962,54.61977554179567,10.0
1963,53.25561145510836,10.0
1964,52.04624613003096,10.0
1965,52.50096749226005,10.0
1966,57.73026315789474,10.0
1967,53.265286377708975,10.0
1968,57.00464396284829,10.0
1969,57.493227554179576,10.0
1970,54.28599071207431,10.0
1971,53.59907120743033,10.0
1972,56.5499226006192,10.0
1973,56.76760835913313,10.0
1974,55.12287151702786,10.0
1975,56.240325077399376,10.0
1976,56.835332817337466,10.0
1977,58.344620743034056,10.0
1978,58.17047213622291,10.0
1979,60.00386996904026,10.0
1980,55.45181888544893,10.0
1981,62.253289473684205,10.0
1982,58.19949690402478,10.0
1983,56.14841331269349,10.0
1984,54.46013931888545,10.0
1985,54.22310371517027,10.0
1986,54.494001547987615,10.0
1987,60.46826625386998,10.0
1988,61.0342492260062,10.0
1989,57.43034055727554,10.0
1990,57.43034055727554,10.0
1991,58.857391640866865,10.0
1992,54.57623839009288,10.0
1993,58.79450464396285,10.0
1994,57.048181114551085,10.0
1995,57.98181114551083,10.0
1996,60.31830495356038,10.0
1997,57.21265479876161,10.0
1998,56.53057275541796,10.0
1999,54.208591331269346,10.0
2000,60.76335139318885,10.0
2001,60.90847523219815,10.0
2002,56.056501547987615,10.0
2003,56.085526315789465,10.0
2004,55.601780185758514,10.0
2005,60.72948916408668,10.0
2006,62.40325077399381,10.0
2007,55.03095975232198,10.0
2008,56.869195046439636,10.0
2009,55.59210526315789,10.0
2010,59.58301083591331,10.0
2011,59.35565015479876,10.0
2012,53.35236068111455,10.0
2013,57.26586687306502,10.0
2014,52.326818885448915,10.0
2015,59.13796439628482,10.0
2016,57.74477554179567,10.0
2017,59.921633126934985,10.0
2018,57.97213622291022,10.0
2019,55.79044117647058,10.0
2020,53.60390866873064,10.0
2021,55.664667182662534,10.0
2022,61.01489938080495,10.0
2023,57.27554179566563,10.0
2024,58.847716718266255,10.0
2025,57.01915634674922,10.0
2026,56.09520123839009,10.0
2027,55.601780185758514,10.0
2028,55.500193498452006,10.0
2029,58.117260061919495,10.0
2030,57.50290247678018,10.0
2031,53.83126934984521,10.0
2032,57.83184984520123,10.0
2033,55.988777089783284,10.0
2034,59.418537151702786,10.0
2035,54.17472910216718,10.0
2036,57.26586687306502,10.0
2037,55.75657894736842,10.0
2038,53.129837461300305,10.0
2039,57.851199690402474,10.0
2040,56.52089783281734,10.0
2041,59.40886222910216,10.0
2042,54.11184210526316,10.0
2043,59.587848297213625,10.0
2044,58.20917182662539,10.0
2045,58.4123452012384,10.0
2046,58.60584365325077,10.0
2047,55.775928792569665,10.0
2048,54.924535603715164,10.0
2049,56.49671052631578,10.0
2050,54.11184210526316,10.0
2051,57.3094040247678,10.0
2052,57.130417956656345,10.0
2053,58.64454334365325,10.0
2054,57.79798761609907,10.0
2055,55.766253869969034,10.0
2056,56.1435758513932,10.0
2057,56.680534055727556,10.0
2058,56.9030572755418,10.0
2059,54.527863777089784,10.0
2060,56.99013157894737,10.0
2061,57.64318885448917,10.0
2062,54.04895510835913,10.0
2063,57.34326625386997,10.0
2064,58.1220975232198,10.0
2065,51.92530959752322,10.0
2066,59.51528637770898,10.0
2067,57.981811145510825,10.0
2068,59.462074303405565,10.0
2069,58.23819659442724,10.0
2070,53.91834365325078,10.0
2071,58.23335913312693,10.0
2072,56.83049535603715,10.0
2073,56.148413312693506,10.0
2074,57.9624613003096,10.0
2075,56.946594427244584,10.0
2076,53.86029411764706,10.0
2077,55.36474458204334,10.0
2078,55.026122291021665,10.0
2079,55.9984520123839,10.0
2080,55.36958204334365,10.0
2081,57.6625386996904,10.0
2082,58.50425696594427,10.0
2083,56.83049535603715,10.0
2084,58.0640479876161,10.0
2085,54.494001547987615,10.0
2086,57.599651702786375,10.0
2087,59.72329721362229,10.0
2088,56.58378482972136,10.0
2089,54.929373065015476,10.0
2090,54.160216718266255,10.0
2091,58.66389318885449,10.0
2092,59.16215170278637,10.0
2093,59.07507739938081,10.0
2094,58.117260061919495,10.0
2095,61.029411764705884,10.0
2096,62.4516253869969,10.0
2097,58.18498452012384,10.0
2098,55.877515479876166,10.0
2099,55.95975232198142,10.0
2100,59.16698916408669,10.0
2101,59.34597523219814,10.0
2102,55.65499226006192,10.0
2103,55.935565015479874,10.0
2104,54.87616099071207,10.0
2105,54.01509287925696,10.0
2106,50.720781733746136,10.0
2107,54.44562693498453,10.0
2108,53.42492260061919,10.0
2109,59.05089009287925,10.0
2110,59.43788699690402,10.0
2111,57.00948142414862,10.0
2112,54.793924148606806,10.0
2113,56.08068885448917,10.0
2114,58.52844427244582,10.0
2115,58.67840557275543,10.0
2116,58.84771671826625,10.0
2117,58.3688080495356,10.0
2118,56.19678792569659,10.0
2119,54.8858359133127,10.0
2120,56.01780185758515,10.0
2121,56.8063080495356,10.0
2122,58.755804953560364,10.0
2123,58.93479102167183,10.0
2124,59.0750773993808,10.0
2125,57.14493034055727,10.0
2126,56.78695820433436,10.0
2127,55.18092105263158,10.0
2128,58.746130030959755,10.0
2129,54.977747678018574,10.0
2130,58.692917956656345,10.0
2131,55.766253869969034,10.0
2132,61.61474458204333,10.0
2133,58.27205882352942,10.0
2134,57.56578947368421,10.0
2135,57.48839009287925,10.0
2136,58.44620743034056,10.0
2137,56.24032507739938,10.0
2138,53.53134674922601,10.0
2139,55.4421439628483,10.0
2140,54.3343653250774,10.0
2141,58.165634674922615,10.0
2142,57.943111455108365,10.0
2143,59.965170278637785,10.0
2144,57.02399380804954,10.0
2145,58.10274767801858,10.0
2146,55.548568111455104,10.0
2147,55.505030959752325,10.0
2148,55.05030959752321,10.0
2149,55.403444272445824,10.0
2150,55.12287151702786,10.0
2151,58.55746904024767,10.0
2152,54.663312693498455,10.0
2153,55.70820433436533,10.0
2154,54.648800309597526,10.0
2155,56.69504643962847,10.0
2156,52.883126934984524,10.0
2157,56.76277089783281,10.0
2158,56.337074303405586,10.0
2159,57.87538699690402,10.0
2160,57.4593653250774,10.0
2161,58.484907120743024,10.0
2162,53.69098297213622,10.0
2163,56.8546826625387,10.0
2164,56.5015479876161,10.0
2165,58.68808049535603,10.0
2166,54.91486068111455,10.0
2167,58.61068111455108,10.0
2168,56.48219814241485,10.0
2169,58.48490712074303,10.0
2170,56.453173374613,10.0
2171,58.79450464396285,10.0
2172,55.68401702786378,10.0
2173,55.611455108359145,10.0
2174,57.12558049535604,10.0
2175,61.04392414860681,10.0
2176,61.03424922600619,10.0
2177,57.8125,10.0
2178,58.67356811145512,10.0
2179,56.569272445820445,10.0
2180,56.279024767801864,10.0
2181,57.0530185758514,10.0
2182,59.16215170278638,10.0
2183,56.94659442724459,10.0
2184,60.0812693498452,10.0
2185,59.04121517027864,10.0
2186,57.69156346749225,10.0
2187,59.670085139318886,10.0
2188,54.10700464396285,10.0
2189,59.75715944272446,10.0
2190,58.31559597523219,10.0
2191,55.32120743034057,10.0
2192,58.378482972136226,10.0
2193,60.59887770897832,10.0
2194,60.87461300309598,10.0
2195,57.1546052631579,10.0
2196,59.01702786377709,10.0
2197,58.08339783281733,10.0
2198,56.11455108359133,10.0
2199,55.171246130030966,10.0
2200,55.48084365325078,10.0
2201,53.652283281733745,10.0
2202,54.12151702786378,10.0
2203,54.76006191950464,10.0
2204,58.25754643962848,10.0
2205,55.59694272445821,10.0
2206,56.12906346749226,10.0
2207,54.087654798761605,10.0
2208,56.733746130030966,10.0
2209,57.410990712074316,10.0
2210,56.53057275541795,10.0
2211,55.393769349845215,10.0
2212,58.20917182662539,10.0
2213,56.78212074303405,10.0
2214,54.93421052631579,10.0
2215,60.003869969040245,10.0
2216,58.73161764705882,10.0
2217,55.88719040247679,10.0
2218,58.23335913312694,10.0
2219,57.202979876160995,10.0
2220,55.79044117647059,10.0
2221,60.71981424148606,10.0
2222,58.310758513931894,10.0
2223,56.39996130030959,10.0
2224,58.05921052631579,10.0
2225,55.398606811145505,10.0
2226,58.55746904024767,10.0
2227,56.91273219814241,10.0
2228,57.082043343653254,10.0
2229,57.49806501547988,10.0
2230,56.07585139318886,10.0
2231,57.91408668730651,10.0
2232,54.67782507739938,10.0
2233,58.59133126934984,10.0
2234,53.06211300309597,10.0
2235,57.75928792569658,10.0
2236,58.05437306501547,10.0
2237,56.69020897832817,10.0
2238,56.51122291021671,10.0
2239,57.42066563467492,10.0
2240,56.041989164086694,10.0
2241,59.10410216718267,10.0
2242,54.532701238390096,10.0
2243,66.05069659442724,10.0
2244,58.59133126934986,10.0
2245,59.66041021671827,10.0
2246,57.889899380804955,10.0
2247,59.515286377708975,10.0
2248,54.9390479876161,10.0
2249,59.27825077399381,10.0
2250,56.59829721362229,10.0
2251,57.66737616099071,10.0
2252,57.502902476780186,10.0
2253,57.918924148606806,10.0
2254,57.188467492260045,10.0
2255,60.88428792569658,10.0
2256,55.89202786377709,10.0
2257,56.3032120743034,10.0
2258,62.233939628482965,10.0
2259,57.71575077399381,10.0
2260,57.976973684210535,10.0
2261,56.68053405572755,10.0
2262,59.36048761609908,10.0
2263,56.5595975232198,10.0
2264,57.246517027863774,10.0
2265,56.762770897832816,10.0
2266,62.891834365325074,10.0
2267,60.26025541795666,10.0
2268,54.65363777089783,10.0
2269,55.030959752321984,10.0
2270,54.247291021671835,10.0
2271,54.523026315789465,10.0
2272,58.61551857585138,10.0
2273,56.699883900928796,10.0
2274,58.56230650154799,10.0
2275,58.223684210526315,10.0
2276,56.61280959752322,10.0
2277,59.882933436532504,10.0
2278,56.73858359133128,10.0
2279,57.01431888544891,10.0
2280,56.27902476780186,10.0
2281,57.24167956656347,10.0
2282,54.039280185758514,10.0
2283,56.09036377708977,10.0
2284,56.3032120743034,10.0
2285,54.63912538699691,10.0
2286,59.09442724458205,10.0
2287,54.0828173374613,10.0
2288,54.58107585139319,10.0
2289,57.362616099071204,10.0
2290,60.94233746130032,10.0
2291,53.46362229102167,10.0
2292,55.22929566563467,10.0
2293,55.37925696594427,10.0
2294,54.50367647058823,10.0
2295,60.758513931888544,10.0
2296,56.811145510835914,10.0
2297,54.17472910216719,10.0
2298,57.202979876160995,10.0
2299,55.12770897832817,10.0
2300,56.95626934984519,10.0
2301,57.502902476780186,10.0
2302,55.58243034055728,10.0
2303,54.034442724458195,10.0
2304,59.162151702786375,10.0
2305,58.00116099071208,10.0
2306,59.82972136222911,10.0
2307,57.822174922600624,10.0
2308,54.72619969040248,10.0
2309,57.99148606811145,10.0
2310,60.55050309597523,10.0
2311,57.440015479876166,10.0
2312,59.04121517027864,10.0
2313,59.06540247678018,10.0
2314,56.970781733746136,10.0
2315,56.51606037151703,10.0
2316,54.8374613003096,10.0
2317,56.17260061919505,10.0
2318,52.53482972136222,10.0
2319,51.765673374613,10.0
2320,60.79721362229102,10.0
2321,56.308049535603715,10.0
2322,59.34597523219815,10.0
2323,58.3639705882353,10.0
2324,57.35294117647058,10.0
2325,56.390286377708975,10.0
2326,56.9030572755418,10.0
2327,58.75096749226006,10.0
2328,56.84017027863777,10.0
2329,54.42627708978328,10.0
2330,59.670085139318886,10.0
2331,59.568498452012385,10.0
2332,59.49593653250774,10.0
2333,59.66524767801858,10.0
2334,58.98800309597524,10.0
2335,56.01780185758515,10.0
2336,56.57894736842106,10.0
2337,58.596168730650156,10.0
2338,53.07178792569659,10.0
2339,60.14899380804953,10.0
2340,54.56172600619195,10.0
2341,59.970007739938076,10.0
2342,58.252708978328165,10.0
2343,55.34055727554179,10.0
2344,55.5437306501548,10.0
2345,53.478134674922615,10.0
2346,57.33359133126935,10.0
2347,56.41931114551084,10.0
2348,56.5547600619195,10.0
2349,61.90982972136224,10.0
2350,56.859520123839005,10.0
2351,59.45239938080495,10.0
2352,59.723297213622295,10.0
2353,55.24380804953561,10.0
2354,56.39996130030959,10.0
2355,56.58378482972135,10.0
2356,54.1360294117647,10.0
2357,57.202979876160995,10.0
2358,57.22716718266253,10.0
2359,57.19330495356037,10.0
2360,60.11513157894736,10.0
2361,56.49187306501549,10.0
2362,56.84017027863777,10.0
2363,59.15731424148606,10.0
2364,53.02341331269349,10.0
2365,62.18556501547988,10.0
2366,56.50638544891642,10.0
2367,56.511222910216716,10.0
2368,56.46768575851393,10.0
2369,57.9140866873065,10.0
2370,58.349458204334354,10.0
2371,59.75715944272446,10.0
2372,57.63835139318886,10.0
2373,55.16157120743035,10.0
2374,60.11029411764706,10.0
2375,56.41447368421053,10.0
2376,56.554760061919495,10.0
2377,55.95975232198142,10.0
2378,58.70259287925697,10.0
2379,59.152476780185765,10.0
2380,55.35990712074304,10.0
2381,54.33436532507739,10.0
2382,55.829140866873054,10.0
2383,56.932082043343655,10.0
2384,57.92859907120743,10.0
2385,55.79044117647059,10.0
2386,58.15595975232198,10.0
2387,57.21749226006192,10.0
2388,57.435178018575854,10.0
2389,57.386803405572756,10.0
2390,53.09113777089784,10.0
2391,55.137383900928796,10.0
2392,53.85061919504644,10.0
2393,54.69233746130031,10.0
2394,54.91002321981424,10.0
2395,59.82004643962848,10.0
2396,54.36822755417956,10.0
2397,54.37790247678019,10.0
2398,55.248645510835914,10.0
2399,58.05437306501548,10.0
2400,56.01780185758514,10.0
2401,57.79315015479876,10.0
2402,58.155959752321984,10.0
2403,59.800696594427244,10.0
2404,55.07449690402477,10.0
2405,58.13177244582044,10.0
2406,53.11532507739938,10.0
2407,54.21826625386996,10.0
2408,58.4171826625387,10.0
2409,59.04121517027863,10.0
2410,57.0046439628483,10.0
2411,57.82701238390092,10.0
2412,53.91350619195047,10.0
2413,52.9266640866873,10.0
2414,58.21400928792569,10.0
2415,55.53889318885449,10.0
2416,56.617647058823536,10.0
2417,59.31211300309598,10.0
2418,54.65363777089783,10.0
2419,57.802825077399376,10.0
2420,57.24651702786377,10.0
2421,56.9562693498452,10.0
2422,56.38061145510836,10.0
2423,51.82372291021672,10.0
2424,56.30804953560372,10.0
2425,57.227167182662534,10.0
2426,59.476586687306494,10.0
2427,54.07314241486068,10.0
2428,57.14493034055727,10.0
2429,54.57140092879257,10.0
2430,56.04198916408669,10.0
2431,55.47116873065015,10.0
2432,58.14628482972137,10.0
2433,56.22097523219814,10.0
2434,54.26664086687307,10.0
2435,62.171052631578945,10.0
2436,57.58997678018576,10.0
2437,59.650735294117645,10.0
2438,58.262383900928796,10.0
2439,55.16640866873065,10.0
2440,57.92859907120743,10.0
2441,53.24593653250775,10.0
2442,59.336300309597526,10.0
2443,55.63564241486068,10.0
2444,53.739357585139324,10.0
2445,57.35294117647059,10.0
2446,54.494001547987615,10.0
2447,59.58301083591331,10.0
2448,56.41447368421053,10.0
2449,56.946594427244584,10.0
2450,51.83339783281734,10.0
2451,57.77863777089783,10.0
2452,58.27205882352942,10.0
2453,58.88157894736841,10.0
2454,53.05727554179567,10.0
2455,55.85332817337462,10.0
2456,60.86977554179566,10.0
2457,53.04760061919505,10.0
2458,56.89338235294118,10.0
2459,58.325270897832816,10.0
2460,55.26315789473683,10.0
2461,52.621904024767794,10.0
2462,55.41311919504644,10.0
2463,54.22794117647058,10.0
2464,52.776702786377705,10.0
2465,53.502321981424146,10.0
2466,51.388351393188856,10.0
2467,56.82565789473684,10.0
2468,56.94175696594428,10.0
2469,58.20917182662539,10.0
2470,58.422020123839005,10.0
2471,53.56520897832817,10.0
2472,59.39918730650155,10.0
2473,53.75386996904024,10.0
2474,56.559597523219814,10.0
2475,58.184984520123834,10.0
2476,59.96033281733746,10.0
2477,57.023993808049525,10.0
2478,56.05166408668731,10.0
2479,59.10893962848297,10.0
2480,55.026122291021665,10.0
2481,58.05437306501548,10.0
2482,56.87886996904024,10.0
2483,53.40557275541795,10.0
2484,59.882933436532504,10.0
2485,58.528444272445824,10.0
2486,58.05437306501548,10.0
2487,56.951431888544896,10.0
2488,58.625193498452006,10.0
2489,57.42066563467492,10.0
2490,56.65634674922601,10.0
2491,54.01509287925696,10.0
2492,59.06540247678018,10.0
2493,57.8608746130031,10.0
2494,60.961687306501545,10.0
2495,57.59965170278638,10.0
2496,57.27070433436532,10.0
2497,55.40828173374614,10.0
2498,54.16989164086687,10.0
2499,56.87886996904025,10.0
2500,55.316369969040245,10.0
2501,52.90731424148606,10.0
2502,52.99438854489164,10.0
2503,53.87964396284829,10.0
2504,56.41447368421053,10.0
2505,54.21826625386997,10.0
2506,56.94659442724459,10.0
2507,54.426277089783284,10.0
2508,53.38138544891641,10.0
2509,55.0890092879257,10.0
2510,55.234133126934985,10.0
2511,60.42956656346749,10.0
2512,55.75174148606811,10.0
2513,59.747484520123834,10.0
2514,59.91679566563467,10.0
2515,57.26586687306502,10.0
2516,54.51335139318886,10.0
2517,55.892027863777095,10.0
2518,57.31907894736842,10.0
2519,54.99709752321981,10.0
2520,54.261803405572756,10.0
2521,59.79102167182663,10.0
2522,59.18633900928792,10.0
2523,57.212654798761605,10.0
2524,57.83184984520124,10.0
2525,60.240905572755416,10.0
2526,53.705495356037154,10.0
2527,58.925116099071204,10.0
2528,56.59829721362229,10.0
2529,58.24787151702786,10.0
2530,54.34404024767802,10.0
2531,55.85816563467492,10.0
2532,56.50638544891641,10.0
2533,56.71923374613004,10.0
2534,60.361842105263165,10.0
2535,54.86164860681115,10.0
2536,55.93072755417956,10.0
2537,59.49109907120744,10.0
2538,57.106230650154814,10.0
2539,54.6875,10.0
2540,58.70743034055728,10.0
2541,54.377902476780186,10.0
2542,52.82991486068113,10.0
2543,56.33707430340558,10.0
2544,59.11861455108359,10.0
2545,57.47871517027863,10.0
2546,58.102747678018574,10.0
2547,56.02263931888546,10.0
2548,56.63215944272446,10.0
2549,57.22716718266253,10.0
2550,56.99013157894736,10.0
2551,54.745549535603715,10.0
2552,59.229876160990706,10.0
2553,58.33978328173375,10.0
2554,53.64744582043344,10.0
2555,55.92105263157895,10.0
2556,57.26586687306502,10.0
2557,58.60584365325077,10.0
2558,58.60100619195046,10.0
2559,55.78560371517027,10.0
2560,53.11532507739937,10.0
2561,57.29005417956656,10.0
2562,55.63564241486068,10.0
2563,56.87886996904026,10.0
2564,56.564434984520126,10.0
2565,58.276896284829725,10.0
2566,59.04121517027864,10.0
2567,56.69020897832817,10.0
2568,57.64802631578947,10.0
2569,58.94930340557275,10.0
2570,56.50638544891642,10.0
2571,54.51818885448916,10.0
2572,54.89551083591331,10.0
2573,57.77863777089784,10.0
2574,55.34055727554179,10.0
2575,60.46826625386998,10.0
2576,58.53811919504645,10.0
2577,57.773800309597526,10.0
2578,56.965944272445824,10.0
2579,58.53811919504644,10.0
2580,57.94794891640866,10.0
2581,58.60100619195047,10.0
2582,56.87403250773994,10.0
2583,57.502902476780186,10.0
2584,60.598877708978335,10.0
2585,57.89473684210526,10.0
2586,55.51470588235294,10.0
2587,61.4309210526316,10.0
2588,53.92801857585138,10.0
2589,55.964589783281724,10.0
2590,58.51876934984521,10.0
2591,58.88641640866873,10.0
2592,56.51122291021672,10.0
2593,57.49322755417956,10.0
2594,57.870549535603715,10.0
2595,54.65363777089783,10.0
2596,57.48839009287926,10.0
2597,59.621710526315795,10.0
2598,57.952786377708975,10.0
2599,56.43866099071207,10.0
2600,57.26586687306502,10.0
2601,56.32256191950464,10.0
2602,54.30050309597524,10.0
2603,56.003289473684205,10.0
2604,56.09036377708978,10.0
2605,60.1296439628483,10.0
2606,59.892608359133135,10.0
2607,55.47116873065014,10.0
2608,57.43034055727554,10.0
2609,58.044698142414866,10.0
2610,53.07662538699691,10.0
2611,54.71652476780186,10.0
2612,56.680534055727556,10.0
2613,59.887770897832816,10.0
2614,59.645897832817326,10.0
2615,57.85603715170278,10.0
2616,57.55611455108359,10.0
2617,52.93633900928791,10.0
2618,60.51664086687306,10.0
2619,54.21826625386996,10.0
2620,58.809017027863774,10.0
2621,61.36803405572756,10.0
2622,55.82914086687307,10.0
2623,59.350812693498455,10.0
2624,56.84017027863777,10.0
2625,59.142801857585134,10.0
2626,56.77244582043345,10.0
2627,56.578947368421055,10.0
2628,58.634868421052644,10.0
2629,57.3094040247678,10.0
2630,55.4469814241486,10.0
2631,58.43169504643963,10.0
2632,55.67434210526316,10.0
2633,55.15673374613002,10.0
2634,58.05921052631578,10.0
2635,59.07991486068112,10.0
2636,59.72813467492261,10.0
2637,56.61764705882353,10.0
2638,56.05166408668731,10.0
2639,53.58455882352942,10.0
2640,59.22987616099072,10.0
2641,57.07236842105264,10.0
2642,58.90576625386997,10.0
2643,59.7281346749226,10.0
2644,59.747484520123834,10.0
2645,57.47387770897833,10.0
2646,54.60526315789474,10.0
2647,55.234133126934985,10.0
2648,58.18498452012383,10.0
2649,58.14628482972136,10.0
2650,57.8076625386997,10.0
2651,54.57623839009288,10.0
2652,56.18227554179566,10.0
2653,57.82701238390092,10.0
2654,53.129837461300305,10.0
2655,59.89260835913313,10.0
2656,57.36745356037152,10.0
2657,55.819465944272444,10.0
2658,56.337074303405565,10.0
2659,56.482198142414866,10.0
2660,59.85390866873065,10.0
2661,55.601780185758514,10.0
2662,56.20646284829721,10.0
2663,57.67705108359134,10.0
2664,55.403444272445824,10.0
2665,55.800116099071204,10.0
2666,55.200270897832816,10.0
2667,55.113196594427244,10.0
2668,60.66660216718266,10.0
2669,60.19736842105264,10.0
2670,55.15189628482971,10.0
2671,54.977747678018574,10.0
2672,57.2561919504644,10.0
2673,54.5859133126935,10.0
2674,61.27128482972136,10.0
2675,57.232004643962846,10.0
2676,58.12693498452012,10.0
2677,57.38196594427244,10.0
2678,60.99071207430341,10.0
2679,60.03773219814242,10.0
2680,54.64880030959752,10.0
2681,57.8125,10.0
2682,57.009481424148596,10.0
2683,56.88854489164086,10.0
2684,55.65015479876161,10.0
2685,57.0094814241486,10.0
2686,58.0108359133127,10.0
2687,56.37093653250774,10.0
2688,58.96865325077399,10.0
2689,56.443498452012385,10.0
2690,58.983165634674926,10.0
2691,55.97910216718266,10.0
2692,55.45181888544892,10.0
2693,50.69175696594428,10.0
2694,55.54373065015479,10.0
2695,56.201625386996895,10.0
2696,57.0578560371517,10.0
2697,54.25212848297213,10.0
2698,57.70123839009289,10.0
2699,57.65770123839009,10.0
2700,62.41776315789474,10.0
2701,59.01702786377709,10.0
2702,57.73026315789473,10.0
2703,61.31965944272445,10.0
2704,58.223684210526315,10.0
2705,59.670085139318886,10.0
2706,59.15247678018575,10.0
2707,61.26644736842104,10.0
2708,57.00948142414861,10.0
2709,57.246517027863774,10.0
2710,56.158088235294116,10.0
2711,56.05166408668732,10.0
2712,51.57701238390092,10.0
2713,60.06675696594427,10.0
2714,58.65421826625386,10.0
2715,56.124226006191954,10.0
2716,58.663893188854495,10.0
2717,55.91621517027863,10.0
2718,56.3999613003096,10.0
2719,60.16350619195046,10.0
2720,61.261609907120736,10.0
2721,55.95491486068111,10.0
2722,55.016447368421055,10.0
2723,56.13873839009288,10.0
2724,57.33842879256966,10.0
2725,56.74825851393189,10.0
2726,55.54856811145511,10.0
2727,57.66737616099071,10.0
2728,53.42008513931888,10.0
2729,60.06675696594427,10.0
2730,57.87054953560371,10.0
2731,54.53270123839009,10.0
2732,58.13660990712074,10.0
2733,54.015092879256976,10.0
2734,53.9812306501548,10.0
2735,57.88022445820434,10.0
2736,57.425503095975216,10.0
2737,61.566369969040245,10.0
2738,56.22581269349844,10.0
2739,60.08126934984519,10.0
2740,58.252708978328165,10.0
2741,52.86861455108358,10.0
2742,60.44891640866872,10.0
2743,56.946594427244584,10.0
2744,55.495356037151694,10.0
2745,54.24729102167183,10.0
2746,59.336300309597526,10.0
2747,57.94311145510836,10.0
2748,53.202399380804955,10.0
2749,58.746130030959755,10.0
2750,57.84636222910217,10.0
2751,55.51954334365325,10.0
2752,56.283862229102155,10.0
2753,51.91563467492261,10.0
2754,55.171246130030966,10.0
2755,57.923761609907125,10.0
2756,58.36397058823529,10.0
2757,57.067530959752325,10.0
2758,58.64938080495356,10.0
2759,58.27689628482972,10.0
2760,56.59829721362229,10.0
2761,57.875386996904034,10.0
2762,55.872678018575854,10.0
2763,60.36667956656347,10.0
2764,51.523800309597526,10.0
2765,54.97291021671827,10.0
2766,54.54237616099071,10.0
2767,54.60042569659443,10.0
2768,53.29431114551084,10.0
2769,59.23955108359134,10.0
2770,61.28579721362229,10.0
2771,61.145510835913306,10.0
2772,53.690982972136226,10.0
2773,54.450464396284836,10.0
2774,58.45104489164087,10.0
2775,56.60313467492261,10.0
2776,55.63080495356037,10.0
2777,51.765673374613,10.0
2778,58.422020123839,10.0
2779,54.65847523219814,10.0
2780,55.91621517027863,10.0
2781,55.87751547987616,10.0
2782,58.184984520123834,10.0
2783,58.99284055727554,10.0
2784,57.362616099071204,10.0
2785,56.999806501547994,10.0
2786,56.74825851393189,10.0
2787,55.819465944272444,10.0
2788,54.81811145510836,10.0
2789,58.35913312693498,10.0
2790,58.79934210526316,10.0
2791,55.43730650154799,10.0
2792,57.98664860681113,10.0
2793,55.137383900928796,10.0
2794,56.78212074303406,10.0
2795,56.056501547987615,10.0
2796,61.53250773993809,10.0
2797,56.26451238390093,10.0
2798,55.75174148606811,10.0
2799,56.66602167182662,10.0
2800,55.27283281733746,10.0
2801,57.68672600619194,10.0
2802,53.671633126934985,10.0
2803,58.70743034055727,10.0
2804,57.39647832817337,10.0
2805,56.39512383900929,10.0
2806,57.65286377708978,10.0
2807,56.17743808049536,10.0
2808,55.640479876161,10.0
2809,57.169117647058826,10.0
2810,61.80824303405572,10.0
2811,54.47465170278638,10.0
2812,57.24167956656348,10.0
2813,57.12074303405572,10.0
2814,58.48006965944272,10.0
2815,58.44620743034055,10.0
2816,53.74903250773993,10.0
2817,55.872678018575854,10.0
2818,56.525735294117645,10.0
2819,56.753095975232206,10.0
2820,56.31772445820433,10.0
2821,53.11048761609908,10.0
2822,55.57759287925697,10.0
2823,60.19253095975232,10.0
2824,60.119969040247675,10.0
2825,56.51122291021672,10.0
2826,52.89763931888545,10.0
2827,55.57759287925696,10.0
2828,58.31075851393189,10.0
2829,55.132546439628484,10.0
2830,57.10623065015481,10.0
2831,55.19543343653252,10.0
2832,54.36339009287926,10.0
2833,54.08765479876161,10.0
2834,58.475232198142415,10.0
2835,58.43653250773994,10.0
2836,53.889318885448915,10.0
2837,57.314241486068106,10.0
2838,57.30940402476781,10.0
2839,57.37712848297213,10.0
2840,51.72213622291022,10.0
2841,62.42260061919505,10.0
2842,56.506385448916404,10.0
2843,57.08204334365325,10.0
2844,59.45239938080495,10.0
2845,56.699883900928796,10.0
2846,54.68266253869969,10.0
2847,57.34326625386997,10.0
2848,58.934791021671835,10.0
2849,55.44214396284829,10.0
2850,55.659829721362236,10.0
2851,60.961687306501545,10.0
2852,55.71787925696595,10.0
2853,56.72890866873065,10.0
2854,54.411764705882355,10.0
2855,59.278250773993804,10.0
2856,53.8796439628483,10.0
2857,58.08823529411765,10.0
2858,57.265866873065015,10.0
2859,58.78482972136223,10.0
2860,59.06540247678019,10.0
2861,55.66950464396285,10.0
2862,51.83339783281734,10.0
2863,55.684017027863774,10.0
2864,58.039860681114554,10.0
2865,58.39299535603715,10.0
2866,58.963815789473685,10.0
2867,57.29005417956657,10.0
2868,56.01780185758514,10.0
2869,51.47542569659443,10.0
2870,53.54102167182662,10.0
2871,51.494775541795676,10.0
2872,53.60390866873065,10.0
2873,57.6625386996904,10.0
2874,60.26993034055728,10.0
2875,54.84229876160992,10.0
2876,61.12616099071206,10.0
2877,56.24032507739939,10.0
2878,56.9562693498452,10.0
2879,56.63699690402478,10.0
2880,55.90654024767802,10.0
2881,60.966524767801864,10.0
2882,57.26102941176471,10.0
2883,54.35855263157895,10.0
2884,54.21826625386997,10.0
2885,60.487616099071204,10.0
2886,54.70684984520124,10.0
2887,57.401315789473685,10.0
2888,54.10700464396285,10.0
2889,59.64589783281734,10.0
2890,51.75599845201239,10.0
2891,57.52708978328173,10.0
2892,56.16776315789474,10.0
2893,56.36609907120743,10.0
2894,53.8796439628483,10.0
2895,57.93827399380805,10.0
2896,60.92782507739939,10.0
2897,52.278444272445824,10.0
2898,58.25754643962848,10.0
2899,54.73587461300309,10.0
2900,58.6687306501548,10.0
2901,61.90499226006191,10.0
2902,55.15673374613004,10.0
2903,56.63215944272446,10.0
2904,56.44349845201238,10.0
2905,56.56443498452012,10.0
2906,57.30456656346749,10.0
2907,53.89899380804954,10.0
2908,55.8533281733746,10.0
2909,56.43382352941177,10.0
2910,57.50290247678019,10.0
2911,56.97078173374614,10.0
2912,58.38332043343652,10.0
2913,56.932082043343655,10.0
2914,57.502902476780186,10.0
2915,55.35990712074303,10.0
2916,56.82082043343654,10.0
2917,57.64318885448917,10.0
2918,57.35777863777089,10.0
2919,56.985294117647065,10.0
2920,61.81308049535604,10.0
2921,59.650735294117645,10.0
2922,54.276315789473685,10.0
2923,57.232004643962846,10.0
2924,57.04334365325078,10.0
2925,60.971362229102155,10.0
2926,58.102747678018574,10.0
2927,56.93691950464396,10.0
2928,58.3688080495356,10.0
2929,57.00948142414861,10.0
2930,54.74071207430341,10.0
2931,54.84229876160991,10.0
2932,53.24109907120743,10.0
2933,56.762770897832816,10.0
2934,56.17743808049536,10.0
2935,55.50503095975233,10.0
2936,56.980456656346746,10.0
2937,54.126354489164086,10.0
2938,57.53192724458204,10.0
2939,57.469040247678016,10.0
2940,55.88719040247678,10.0
2941,60.511803405572756,10.0
2942,59.16215170278639,10.0
2943,57.62867647058823,10.0
2944,56.23548761609907,10.0
2945,58.18982198142414,10.0
2946,56.1000386996904,10.0
2947,54.62945046439628,10.0
2948,52.389705882352935,10.0
2949,56.41931114551084,10.0
2950,56.57410990712074,10.0
2951,55.838815789473685,10.0
2952,56.370936532507734,10.0
2953,57.841524767801864,10.0
2954,56.158088235294116,10.0
2955,53.023413312693506,10.0
2956,54.55205108359133,10.0
2957,55.27283281733746,10.0
2958,58.4171826625387,10.0
2959,56.516060371517035,10.0
2960,61.31965944272446,10.0
2961,57.2610294117647,10.0
2962,54.90518575851394,10.0
2963,59.71362229102168,10.0
2964,56.491873065015476,10.0
2965,54.46013931888545,10.0
2966,57.46420278637771,10.0
2967,54.818111455108365,10.0
2968,58.8719040247678,10.0
2969,54.53270123839009,10.0
2970,52.97020123839009,10.0
2971,53.85061919504645,10.0
2972,56.92724458204334,10.0
2973,56.93691950464397,10.0
2974,58.8719040247678,10.0
2975,60.390866873065015,10.0
2976,56.00328947368422,10.0
2977,57.914086687306494,10.0
2978,52.71381578947369,10.0
2979,59.05089009287926,10.0
2980,57.091718266253864,10.0
2981,56.61764705882353,10.0
2982,56.994969040247675,10.0
2983,55.94040247678019,10.0
2984,55.82914086687307,10.0
2985,55.82430340557276,10.0
2986,54.47465170278638,10.0
2987,54.33920278637771,10.0
2988,60.33765479876162,10.0
2989,52.57352941176471,10.0
2990,55.538893188854495,10.0
2991,57.69156346749226,10.0
2992,56.57894736842105,10.0
2993,56.58862229102167,10.0
2994,55.62596749226007,10.0
2995,57.565789473684205,10.0
2996,59.54431114551083,10.0
2997,53.86996904024768,10.0
2998,57.83668730650155,10.0
2999,60.545665634674926,10.0
3000,52.89280185758515,10.0
3001,56.849845201238395,10.0
3002,55.78560371517027,10.0
3003,54.63912538699691,10.0
3004,55.630804953560364,10.0
3005,57.88989938080495,10.0
3006,56.138738390092875,10.0
3007,56.47736068111455,10.0
3008,51.993034055727556,10.0
3009,52.32681888544892,10.0
3010,60.00386996904026,10.0
3011,56.617647058823536,10.0
3012,60.01354489164086,10.0
3013,55.766253869969034,10.0
3014,53.453947368421055,10.0
3015,57.9140866873065,10.0
3016,59.220201238390096,10.0
3017,60.45859133126935,10.0
3018,56.1967879256966,10.0
3019,51.25773993808049,10.0
3020,55.621130030959755,10.0
3021,55.46149380804953,10.0
3022,59.42821207430341,10.0
3023,54.37306501547988,10.0
3024,55.35506965944272,10.0
3025,55.137383900928796,10.0
3026,56.07101393188854,10.0
3027,55.717879256965944,10.0
3028,58.55746904024767,10.0
3029,59.2782507739938,10.0
3030,59.91195820433437,10.0
3031,54.281153250774004,10.0
3032,55.137383900928796,10.0
3033,55.17608359133127,10.0
3034,58.03018575851394,10.0
3035,56.6031346749226,10.0
3036,58.08339783281735,10.0
3037,56.341911764705884,10.0
3038,61.99690402476781,10.0
3039,54.31017801857585,10.0
3040,59.297600619195045,10.0
3041,56.2983746130031,10.0
3042,57.7109133126935,10.0
3043,57.44485294117647,10.0
3044,59.61203560371517,10.0
3045,55.42763157894738,10.0
3046,59.858746130030966,10.0
3047,52.23490712074304,10.0
3048,56.85952012383902,10.0
3049,55.113196594427244,10.0
3050,57.536764705882355,10.0
3051,53.8796439628483,10.0
3052,55.974264705882355,10.0
3053,54.96807275541795,10.0
3054,56.74342105263158,10.0
3055,56.41931114551084,10.0
3056,59.71845975232197,10.0
3057,58.46555727554179,10.0
3058,57.79798761609908,10.0
3059,54.10700464396285,10.0
3060,57.164280185758514,10.0
3061,57.202979876160995,10.0
3062,56.8063080495356,10.0
3063,60.17801857585138,10.0
3064,58.06404798761609,10.0
3065,58.08823529411765,10.0
3066,55.61629256965944,10.0
3067,54.9390479876161,10.0
3068,55.6453173374613,10.0
3069,59.73297213622292,10.0
3070,55.00193498452012,10.0
3071,57.420665634674926,10.0
3072,56.23548761609908,10.0
3073,60.531153250774,10.0
3074,59.302438080495364,10.0
3075,54.17472910216718,10.0
3076,52.98955108359133,10.0
3077,54.57623839009288,10.0
3078,56.39512383900929,10.0
3079,56.77728328173375,10.0
3080,55.02612229102167,10.0
3081,61.01006191950463,10.0
3082,60.06675696594428,10.0
3083,53.86513157894738,10.0
3084,54.9922600619195,10.0
3085,60.43924148606811,10.0
3086,55.15189628482973,10.0
3087,58.8186919504644,10.0
3088,52.834752321981426,10.0
3089,58.35913312693498,10.0
3090,54.450464396284836,10.0
3091,52.17685758513932,10.0
3092,59.713622291021686,10.0
3093,56.67085913312694,10.0
3094,58.717105263157904,10.0
3095,55.26799535603715,10.0
3096,59.87325851393189,10.0
3097,58.17047213622291,10.0
3098,57.18846749226007,10.0
3099,54.70684984520124,10.0
3100,59.03637770897833,10.0
3101,58.47523219814242,10.0
3102,57.19814241486068,10.0
3103,52.563854489164086,10.0
3104,58.58165634674922,10.0
3105,59.079914860681114,10.0
3106,60.028057275541805,10.0
3107,57.76412538699691,10.0
3108,57.63351393188856,10.0
3109,55.34055727554179,10.0
3110,54.581075851393194,10.0
3111,58.76064241486068,10.0
3112,53.61358359133127,10.0
3113,61.75503095975233,10.0
3114,54.99226006191951,10.0
3115,55.42279411764706,10.0
3116,53.937693498452006,10.0
3117,55.66950464396285,10.0
3118,62.074303405572756,10.0
3119,56.08552631578948,10.0
3120,59.447561919504636,10.0
3121,55.70820433436533,10.0
3122,55.113196594427244,10.0
3123,56.071013931888544,10.0
3124,53.183049535603715,10.0
3125,58.688080495356026,10.0
3126,54.98258513931889,10.0
3127,59.776509287925705,10.0
3128,55.437306501547994,10.0
3129,53.48780959752322,10.0
3130,56.912732198142415,10.0
3131,57.4109907120743,10.0
3132,54.65363777089783,10.0
3133,56.97561919504644,10.0
3134,58.27689628482972,10.0
3135,58.818691950464405,10.0
3136,58.49941950464397,10.0
3137,57.014318885448915,10.0
3138,58.00116099071208,10.0
3139,59.026702786377705,10.0
3140,57.13525541795666,10.0
3141,61.30514705882353,10.0
3142,59.752321981424146,10.0
3143,56.62732198142415,10.0
3144,57.454527863777095,10.0
3145,56.932082043343655,10.0
3146,61.295472136222905,10.0
3147,57.32875386996904,10.0
3148,58.10758513931888,10.0
3149,56.13390092879256,10.0
3150,56.81598297213623,10.0
3151,56.71439628482972,10.0
3152,57.014318885448915,10.0
3153,56.28386222910216,10.0
3154,58.70743034055728,10.0
3155,56.33223684210526,10.0
3156,59.220201238390096,10.0
3157,57.02883126934984,10.0
3158,57.42066563467491,10.0
3159,56.796633126934985,10.0
3160,59.34113777089783,10.0
3161,59.72329721362229,10.0
3162,56.699883900928796,10.0
3163,58.392995356037154,10.0
3164,54.45046439628483,10.0
3165,60.12480650154799,10.0
3166,60.46826625386998,10.0
3167,54.290828173374614,10.0
3168,56.35642414860681,10.0
3169,54.95356037151703,10.0
3170,59.921633126934985,10.0
3171,57.280379256965944,10.0
3172,57.61900154798762,10.0
3173,58.480069659442734,10.0
3174,57.17879256965944,10.0
3175,62.91118421052631,10.0
3176,56.51122291021672,10.0
3177,54.32952786377707,10.0
3178,52.60739164086687,10.0
3179,60.19736842105262,10.0
3180,54.96323529411765,10.0
3181,56.6515092879257,10.0
3182,56.79179566563468,10.0
3183,58.12693498452012,10.0
3184,55.89202786377709,10.0
3185,57.34326625386997,10.0
3186,57.15460526315789,10.0
3187,55.2921826625387,10.0
3188,57.048181114551085,10.0
3189,55.73722910216719,10.0
3190,60.07159442724458,10.0
3191,55.02128482972137,10.0
3192,56.564434984520126,10.0
3193,55.67434210526317,10.0
3194,59.703947368421055,10.0
3195,58.596168730650156,10.0
3196,55.611455108359124,10.0
3197,58.678405572755416,10.0
3198,58.42685758513932,10.0
3199,56.53057275541795,10.0
3200,56.26934984520125,10.0
3201,57.638351393188856,10.0
3202,57.275541795665646,10.0
3203,53.76838235294118,10.0
3204,53.76354489164087,10.0
3205,53.574883900928796,10.0
3206,59.5249613003096,10.0
3207,56.77244582043343,10.0
3208,60.05708204334365,10.0
3209,56.33223684210526,10.0
3210,58.03986068111456,10.0
3211,57.87538699690403,10.0
3212,60.15383126934984,10.0
3213,56.61764705882353,10.0
3214,57.686726006191954,10.0
3215,57.72542569659443,10.0
3216,60.41021671826625,10.0
3217,55.32120743034056,10.0
3218,57.08688080495355,10.0
3219,58.80417956656347,10.0
3220,58.03502321981424,10.0
3221,59.23955108359134,10.0
3222,54.93421052631578,10.0
3223,56.53057275541796,10.0
3224,55.567917956656345,10.0
3225,56.82565789473684,10.0
3226,58.117260061919495,10.0
3227,56.38544891640867,10.0
3228,53.763544891640855,10.0
3229,56.15325077399381,10.0
3230,54.52302631578948,10.0
3231,56.91273219814242,10.0
3232,59.665247678018574,10.0
3233,58.7703173374613,10.0
3234,55.04063467492261,10.0
3235,56.564434984520126,10.0
3236,58.19465944272446,10.0
3237,57.85119969040248,10.0
3238,54.30534055727554,10.0
3239,56.279024767801864,10.0
3240,54.73587461300309,10.0
3241,58.596168730650156,10.0
3242,57.84636222910216,10.0
3243,54.46013931888546,10.0
3244,57.53192724458204,10.0
3245,56.29353715170277,10.0
3246,55.219620743034056,10.0
3247,54.67782507739938,10.0
3248,56.59829721362229,10.0
3249,55.10835913312694,10.0
3250,58.4703947368421,10.0
3251,57.31907894736842,10.0
3252,55.39860681114551,10.0
3253,60.16350619195047,10.0
3254,58.80417956656346,10.0
3255,55.41795665634675,10.0
3256,56.849845201238395,10.0
3257,58.407507739938076,10.0
3258,52.970201238390096,10.0
3259,53.797407120743046,10.0
3260,58.209171826625386,10.0
3261,56.757933436532504,10.0
3262,57.62867647058823,10.0
3263,59.297600619195045,10.0
3264,57.2078173374613,10.0
3265,54.95356037151703,10.0
3266,53.7828947368421,10.0
3267,57.82217492260062,10.0
3268,56.21130030959752,10.0
3269,56.994969040247675,10.0
3270,54.76006191950464,10.0
3271,58.24787151702787,10.0
3272,55.36474458204334,10.0
3273,54.73587461300309,10.0
3274,56.414473684210535,10.0
3275,59.22987616099072,10.0
3276,57.50773993808049,10.0
3277,55.32120743034056,10.0
3278,57.667376160990706,10.0
3279,55.20510835913313,10.0
3280,58.10274767801858,10.0
3281,54.46013931888544,10.0
3282,59.09926470588236,10.0
3283,57.88506191950464,10.0
3284,59.35565015479875,10.0
3285,54.98258513931889,10.0
3286,58.83804179566563,10.0
3287,57.94311145510835,10.0
3288,58.23819659442724,10.0
3289,55.24864551083591,10.0
3290,58.16079721362229,10.0
3291,57.01915634674923,10.0
3292,59.10410216718266,10.0
3293,58.23335913312693,10.0
3294,57.37712848297215,10.0
3295,56.53541021671827,10.0
3296,55.248645510835914,10.0
3297,55.61629256965944,10.0
3298,54.13119195046439,10.0
3299,62.15654024767803,10.0
3300,61.81308049535604,10.0
3301,55.180921052631575,10.0
3302,55.746904024767815,10.0
3303,58.26238390092879,10.0
3304,58.542956656346746,10.0
3305,57.45452786377708,10.0
3306,56.66602167182663,10.0
3307,56.104876160990706,10.0
3308,58.78482972136222,10.0
3309,59.4282120743034,10.0
3310,56.42898606811146,10.0
3311,59.379837461300305,10.0
3312,54.91002321981425,10.0
3313,58.596168730650156,10.0
3314,57.2561919504644,10.0
3315,59.88293343653252,10.0
3316,55.86784055727554,10.0
3317,52.90247678018575,10.0
3318,57.42550309597523,10.0
3319,57.03850619195047,10.0
3320,55.335719814241486,10.0
3321,55.166408668730654,10.0
3322,56.646671826625386,10.0
3323,57.17879256965944,10.0
3324,58.45104489164087,10.0
3325,56.24516253869968,10.0
3326,58.03018575851393,10.0
3327,58.8235294117647,10.0
3328,56.67085913312694,10.0
3329,52.10913312693498,10.0
3330,55.38893188854489,10.0
3331,56.046826625387,10.0
3332,58.04469814241486,10.0
3333,60.26993034055728,10.0
3334,57.82701238390092,10.0
3335,52.67027863777089,10.0
3336,55.24380804953561,10.0
3337,57.169117647058826,10.0
3338,51.77051083591331,10.0
3339,55.16157120743034,10.0
3340,58.48490712074304,10.0
3341,57.2078173374613,10.0
3342,54.80359907120743,10.0
3343,58.97832817337461,10.0
3344,59.21536377708978,10.0
3345,56.598297213622295,10.0
3346,55.461493808049525,10.0
3347,55.77592879256966,10.0
3348,57.32391640866874,10.0
3349,53.570046439628484,10.0
3350,53.74419504643963,10.0
3351,54.532701238390096,10.0
3352,57.94794891640867,10.0
3353,55.4953560371517,10.0
3354,58.15112229102167,10.0
3355,56.14357585139319,10.0
3356,61.024574303405565,10.0
3357,58.53811919504644,10.0
3358,54.15054179566564,10.0
3359,55.756578947368425,10.0
3360,57.86087461300309,10.0
3361,55.4469814241486,10.0
3362,58.61068111455108,10.0
3363,53.17337461300309,10.0
3364,57.95762383900929,10.0
3365,55.311532507739955,10.0
3366,56.16776315789473,10.0
3367,55.46633126934984,10.0
3368,60.66176470588237,10.0
3369,56.84984520123839,10.0
3370,57.6190015479876,10.0
3371,54.11667956656348,10.0
3372,60.51664086687306,10.0
3373,59.62654798761611,10.0
3374,54.42143962848297,10.0
3375,56.095201238390096,10.0
3376,55.205108359133135,10.0
3377,52.3703560371517,10.0
3378,58.66873065015479,10.0
3379,57.62383900928792,10.0
3380,55.18092105263158,10.0
3381,58.59616873065016,10.0
3382,57.53676470588235,10.0
3383,57.39647832817338,10.0
3384,58.441369969040245,10.0
3385,56.59829721362229,10.0
3386,56.03715170278639,10.0
3387,56.06133900928792,10.0
3388,55.77109133126936,10.0
3389,58.1656346749226,10.0
3390,53.73935758513932,10.0
3391,54.61493808049537,10.0
3392,58.775154798761605,10.0
3393,61.05843653250775,10.0
3394,54.44078947368422,10.0
3395,60.15866873065015,10.0
3396,58.91060371517029,10.0
3397,59.336300309597526,10.0
3398,55.95975232198141,10.0
3399,56.70955882352941,10.0
3400,58.07856037151702,10.0
3401,57.715750773993804,10.0
3402,60.65208978328174,10.0
3403,53.35719814241486,10.0
3404,56.10487616099071,10.0
3405,57.870549535603715,10.0
3406,60.17318111455109,10.0
3407,55.6453173374613,10.0
3408,56.994969040247675,10.0
3409,59.97484520123839,10.0
3410,54.35855263157894,10.0
3411,56.12422600619194,10.0
3412,58.80901702786378,10.0
3413,58.4703947368421,10.0
3414,54.92453560371518,10.0
3415,59.31211300309597,10.0
3416,58.659055727554176,10.0
3417,57.69640092879257,10.0
3418,58.359133126934985,10.0
3419,55.02128482972137,10.0
3420,60.52631578947368,10.0
3421,54.46497678018576,10.0
3422,54.02476780185758,10.0
3423,55.62113003095976,10.0
3424,58.842879256965944,10.0
3425,53.957043343653254,10.0
3426,57.83184984520124,10.0
3427,56.30321207430341,10.0
3428,55.52921826625387,10.0
3429,56.23065015479877,10.0
3430,52.384868421052644,10.0
3431,57.768962848297214,10.0
3432,55.77592879256966,10.0
3433,56.182275541795654,10.0
3434,54.30050309597522,10.0
3435,53.657120743034056,10.0
3436,57.39647832817338,10.0
3437,54.80359907120743,10.0
3438,52.83958978328174,10.0
3439,55.05998452012384,10.0
3440,55.03579721362229,10.0
3441,57.64318885448917,10.0
3442,53.46362229102168,10.0
3443,52.65092879256966,10.0
3444,56.36609907120743,10.0
3445,55.45181888544891,10.0
3446,55.785603715170275,10.0
3447,52.39454334365325,10.0
3448,57.04334365325077,10.0
3449,56.51122291021672,10.0
3450,57.028831269349844,10.0
3451,53.487809597523224,10.0
3452,56.520897832817326,10.0
3453,57.75445046439629,10.0
3454,59.69910990712075,10.0
3455,54.60526315789474,10.0
3456,57.78831269349845,10.0
3457,57.33359133126936,10.0
3458,58.42685758513932,10.0
3459,50.9578173374613,10.0
3460,55.32604489164086,10.0
3461,55.059984520123834,10.0
3462,55.32604489164086,10.0
3463,58.07372291021672,10.0
3464,54.929373065015476,10.0
3465,58.489744582043336,10.0
3466,55.2921826625387,10.0
3467,58.712267801857585,10.0
3468,54.61010061919506,10.0
3469,57.46904024767802,10.0
3470,59.442724458204324,10.0
3471,56.98045665634675,10.0
3472,55.48084365325077,10.0
3473,55.538893188854495,10.0
3474,61.242260061919495,10.0
3475,57.294891640866865,10.0
3476,56.30321207430341,10.0
3477,53.95220588235295,10.0
3478,52.40421826625387,10.0
3479,55.22445820433437,10.0
3480,52.9750386996904,10.0
3481,57.47871517027864,10.0
3482,56.27902476780185,10.0
3483,58.10274767801857,10.0
3484,57.401315789473685,10.0
3485,57.77863777089784,10.0
3486,57.36745356037151,10.0
3487,59.26373839009289,10.0
3488,55.925890092879264,10.0
3489,59.433049535603715,10.0
3490,59.10410216718266,10.0
3491,57.991486068111456,10.0
3492,54.45046439628483,10.0
3493,56.6031346749226,10.0
3494,55.732391640866865,10.0
3495,59.0750773993808,10.0
3496,56.022639318885446,10.0
3497,58.30592105263158,10.0
3498,55.26799535603715,10.0
3499,58.49941950464397,10.0
3500,57.14009287925696,10.0
3501,58.1124226006192,10.0
3502,55.640479876160995,10.0
3503,57.65770123839009,10.0
3504,55.73722910216718,10.0
3505,58.28173374613003,10.0
3506,52.23490712074304,10.0
3507,55.867840557275535,10.0
3508,60.028057275541805,10.0
3509,53.09113777089783,10.0
3510,54.93421052631579,10.0
3511,55.55824303405572,10.0
3512,59.418537151702786,10.0
3513,56.77244582043344,10.0
3514,57.69640092879257,10.0
3515,57.53192724458205,10.0
3516,54.585913312693506,10.0
3517,57.93827399380805,10.0
3518,56.09036377708978,10.0
3519,56.46768575851393,10.0
3520,53.12983746130031,10.0
3521,57.86571207430342,10.0
3522,57.609326625387,10.0
3523,54.77457430340558,10.0
3524,55.621130030959755,10.0
3525,53.69098297213621,10.0
3526,56.29353715170279,10.0
3527,57.101393188854495,10.0
3528,58.04469814241486,10.0
3529,53.28947368421053,10.0
3530,54.7939241486068,10.0
3531,57.98664860681114,10.0
3532,55.37441950464396,10.0
3533,58.11242260061919,10.0
3534,57.246517027863774,10.0
3535,56.87403250773995,10.0
3536,53.918343653250766,10.0
3537,54.30534055727554,10.0
3538,59.58301083591331,10.0
3539,58.073722910216716,10.0
3540,55.48568111455108,10.0
3541,54.38273993808049,10.0
3542,57.652863777089784,10.0
3543,55.56308049535603,10.0
3544,56.58378482972136,10.0
3545,57.706075851393194,10.0
3546,57.0530185758514,10.0
3547,58.82352941176471,10.0
3548,55.51470588235295,10.0
3549,55.737229102167184,10.0
3550,54.044117647058826,10.0
3551,57.17395510835913,10.0
3552,56.00812693498454,10.0
3553,59.81037151702785,10.0
3554,56.3032120743034,10.0
3555,56.85952012383901,10.0
3556,55.137383900928796,10.0
3557,55.9404024767802,10.0
3558,54.3343653250774,10.0
3559,56.41447368421053,10.0
3560,57.80282507739939,10.0
3561,57.4109907120743,10.0
3562,55.29218266253869,10.0
3563,59.752321981424146,10.0
3564,55.57759287925697,10.0
3565,52.679953560371516,10.0
3566,56.49671052631579,10.0
3567,56.68053405572755,10.0
3568,54.639125386996895,10.0
3569,56.38544891640867,10.0
3570,60.15383126934984,10.0
3571,54.997097523219814,10.0
3572,59.13796439628483,10.0
3573,54.56656346749226,10.0
3574,56.999806501547994,10.0
3575,59.98935758513932,10.0
3576,55.57275541795666,10.0
3577,51.799535603715164,10.0
3578,57.22716718266254,10.0
3579,56.83533281733746,10.0
3580,53.69098297213622,10.0
3581,52.85893962848298,10.0
3582,57.6625386996904,10.0
3583,59.62171052631579,10.0
3584,54.80359907120743,10.0
3585,59.055727554179555,10.0
3586,57.870549535603715,10.0
3587,56.89338235294118,10.0
3588,54.40692724458205,10.0
3589,55.592105263157904,10.0
3590,54.70201238390092,10.0
3591,57.17395510835914,10.0
3592,57.038506191950475,10.0
3593,54.740712074303396,10.0
3594,56.041989164086694,10.0
3595,57.43517801857586,10.0
3596,54.94388544891642,10.0
3597,57.144930340557266,10.0
3598,55.17608359133127,10.0
3599,53.92318111455109,10.0
3600,55.437306501547994,10.0
3601,56.03231424148606,10.0
3602,57.077205882352935,10.0
3603,51.857585139318886,10.0
3604,54.387577399380795,10.0
3605,56.380611455108365,10.0
3606,55.87267801857586,10.0
3607,51.799535603715164,10.0
3608,53.45394736842105,10.0
3609,56.67569659442725,10.0
3610,59.49593653250774,10.0
3611,60.511803405572756,10.0
3612,57.633513931888544,10.0
3613,57.41582817337462,10.0
3614,57.53676470588235,10.0
3615,58.35429566563467,10.0
3616,57.64802631578947,10.0
3617,56.999806501547994,10.0
3618,58.80901702786378,10.0
3619,54.35855263157895,10.0
3620,58.97832817337462,10.0
3621,55.31636996904025,10.0
3622,57.71575077399381,10.0
3623,57.45936532507739,10.0
3624,62.52902476780185,10.0
3625,51.53347523219814,10.0
3626,60.090944272445824,10.0
3627,60.192530959752325,10.0
3628,55.32120743034056,10.0
3629,59.075077399380795,10.0
3630,58.40267027863777,10.0
3631,61.363196594427244,10.0
3632,54.70684984520124,10.0
3633,57.5609520123839,10.0
3634,56.511222910216716,10.0
3635,56.491873065015476,10.0
3636,58.2140092879257,10.0
3637,57.943111455108365,10.0
3638,57.65770123839009,10.0
3639,55.95007739938081,10.0
3640,57.783475232198136,10.0
3641,56.90789473684211,10.0
3642,57.57062693498452,10.0
3643,56.48703560371518,10.0
3644,60.6279024767802,10.0
3645,57.028831269349844,10.0
3646,57.909249226006196,10.0
3647,56.7530959752322,10.0
3648,54.31985294117647,10.0
3649,53.337848297213625,10.0
3650,50.812693498452006,10.0
3651,56.17260061919505,10.0
3652,53.095975232198136,10.0
3653,59.13796439628482,10.0
3654,56.50638544891641,10.0
3655,57.90441176470589,10.0
3656,54.63428792569659,10.0
3657,55.26799535603715,10.0
3658,53.337848297213625,10.0
3659,57.899574303405565,10.0
3660,56.1967879256966,10.0
3661,58.465557275541805,10.0
3662,58.65421826625387,10.0
3663,57.2561919504644,10.0
3664,55.25832043343653,10.0
3665,55.32604489164086,10.0
3666,55.37441950464396,10.0
3667,57.21265479876162,10.0
3668,56.00812693498453,10.0
3669,53.13467492260062,10.0
3670,55.7952786377709,10.0
3671,55.22445820433437,10.0
3672,60.29895510835913,10.0
3673,55.94523993808049,10.0
3674,59.89744582043344,10.0
3675,57.64802631578948,10.0
3676,53.85061919504644,10.0
3677,55.71304179566564,10.0
3678,56.390286377708975,10.0
3679,58.726780185758514,10.0
3680,60.8407507739938,10.0
3681,57.38196594427244,10.0
3682,59.64106037151703,10.0
3683,54.02960526315789,10.0
3684,52.9266640866873,10.0
3685,55.742066563467496,10.0
3686,53.8361068111455,10.0
3687,53.68130804953561,10.0
3688,59.612035603715164,10.0
3689,56.54992260061919,10.0
3690,59.54431114551084,10.0
3691,57.75928792569659,10.0
3692,61.039086687306494,10.0
3693,54.629450464396285,10.0
3694,60.90363777089783,10.0
3695,56.9514318885449,10.0
3696,55.717879256965944,10.0
3697,55.46149380804954,10.0
3698,56.390286377708975,10.0
3699,55.73722910216719,10.0
3700,55.14222136222911,10.0
3701,54.329527863777095,10.0
3702,57.06269349845201,10.0
3703,57.94311145510836,10.0
3704,61.32933436532509,10.0
3705,57.05301857585138,10.0
3706,56.883707430340564,10.0
3707,58.005998452012385,10.0
3708,59.10410216718267,10.0
3709,60.12480650154799,10.0
3710,56.690208978328165,10.0
3711,53.221749226006196,10.0
3712,62.06462848297213,10.0
3713,56.27418730650155,10.0
3714,59.16215170278638,10.0
3715,56.225812693498455,10.0
3716,54.40208978328173,10.0
3717,58.915441176470594,10.0
3718,53.89415634674923,10.0
3719,56.14357585139319,10.0
3720,57.725425696594435,10.0
3721,56.81114551083592,10.0
3722,56.60797213622291,10.0
3723,56.1532507739938,10.0
3724,58.431695046439636,10.0
3725,57.79798761609907,10.0
3726,53.35236068111455,10.0
3727,55.77592879256966,10.0
3728,56.94175696594427,10.0
3729,55.79527863777089,10.0
3730,55.13254643962847,10.0
3731,57.49322755417957,10.0
3732,54.05863003095975,10.0
3733,54.86164860681114,10.0
3734,58.954140866873054,10.0
3735,55.8968653250774,10.0
3736,55.364744582043336,10.0
3737,55.89202786377708,10.0
3738,56.63699690402477,10.0
3739,55.46149380804953,10.0
3740,59.40402476780185,10.0
3741,55.83881578947369,10.0
3742,59.26373839009288,10.0
3743,56.23548761609907,10.0
3744,59.089589783281745,10.0
3745,59.9313080495356,10.0
3746,57.83668730650154,10.0
3747,56.74342105263158,10.0
3748,58.455882352941174,10.0
3749,55.24864551083592,10.0
3750,59.13796439628482,10.0
3751,51.8672600619195,10.0
3752,57.82217492260061,10.0
3753,55.538893188854495,10.0
3754,60.56985294117647,10.0
3755,56.64667182662539,10.0
3756,55.495356037151694,10.0
3757,57.3094040247678,10.0
3758,58.96865325077399,10.0
3759,56.91756965944272,10.0
3760,56.18711300309597,10.0
3761,59.65557275541795,10.0
3762,59.48626160990712,10.0
3763,55.959752321981426,10.0
3764,57.97697368421053,10.0
3765,55.24864551083591,10.0
3766,54.6875,10.0
3767,59.984520123839005,10.0
3768,58.68324303405572,10.0
3769,58.54295665634675,10.0
3770,58.4171826625387,10.0
3771,54.76489938080495,10.0
3772,57.68672600619195,10.0
3773,60.85042569659442,10.0
3774,54.092492260061924,10.0
3775,55.00677244582044,10.0
3776,55.37441950464395,10.0
3777,57.46420278637771,10.0
3778,56.017801857585134,10.0
3779,57.80282507739938,10.0
3780,59.93130804953561,10.0
3781,56.28386222910217,10.0
3782,57.25619195046439,10.0
3783,58.17530959752322,10.0
3784,58.218846749226,10.0
3785,57.14493034055728,10.0
3786,59.03637770897833,10.0
3787,54.59075077399381,10.0
3788,55.92589009287925,10.0
3789,58.93962848297213,10.0
3790,56.58378482972136,10.0
3791,59.689434984520126,10.0
3792,57.4109907120743,10.0
3793,56.17743808049536,10.0
3794,55.76141640866872,10.0
3795,59.3266253869969,10.0
3796,56.48703560371517,10.0
3797,57.04818111455109,10.0
3798,56.58862229102167,10.0
3799,55.524380804953566,10.0
3800,56.424148606811144,10.0
3801,55.65499226006191,10.0
3802,56.3515866873065,10.0
3803,54.392414860681114,10.0
3804,58.06888544891641,10.0
3805,55.37925696594427,10.0
3806,56.482198142414866,10.0
3807,56.04198916408669,10.0
3808,53.255611455108365,10.0
3809,53.88448142414861,10.0
3810,57.89957430340557,10.0
3811,61.45510835913313,10.0
3812,60.45859133126935,10.0
3813,60.34249226006191,10.0
3814,52.8202399380805,10.0
3815,59.68943498452012,10.0
3816,55.74206656346749,10.0
3817,57.83184984520123,10.0
3818,56.767608359133135,10.0
3819,56.38061145510836,10.0
3820,57.99148606811146,10.0
3821,53.29431114551083,10.0
3822,59.012190402476776,10.0
3823,54.61010061919505,10.0
3824,56.17260061919506,10.0
3825,55.59694272445821,10.0
3826,57.246517027863774,10.0
3827,58.15112229102167,10.0
3828,55.42763157894737,10.0
3829,55.05514705882353,10.0
3830,55.5437306501548,10.0
3831,55.67434210526316,10.0
3832,56.53057275541796,10.0
3833,56.037151702786375,10.0
3834,57.62383900928793,10.0
3835,55.25348297213621,10.0
3836,58.80901702786378,10.0
3837,52.89280185758514,10.0
3838,57.34326625386997,10.0
3839,56.72407120743034,10.0
3840,57.36745356037151,10.0
3841,55.88235294117647,10.0
3842,58.16563467492261,10.0
3843,56.03231424148606,10.0
3844,58.9734907120743,10.0
3845,58.35429566563468,10.0
3846,53.444272445820445,10.0
3847,59.549148606811144,10.0
3848,57.619001547987615,10.0
3849,57.90441176470589,10.0
3850,56.93691950464397,10.0
3851,55.16640866873065,10.0
3852,55.77592879256966,10.0
3853,55.39376934984521,10.0
3854,58.70259287925696,10.0
3855,55.03095975232199,10.0
3856,54.91002321981424,10.0
3857,58.37364551083591,10.0
3858,54.49883900928792,10.0
3859,58.27689628482973,10.0
3860,60.84075077399381,10.0
3861,59.45723684210526,10.0
3862,58.47523219814241,10.0
3863,57.1159055727554,10.0
3864,57.981811145510825,10.0
3865,58.96865325077401,10.0
3866,55.267995356037154,10.0
3867,57.73026315789474,10.0
3868,53.874806501547994,10.0
3869,61.76954334365325,10.0
3870,58.1172600619195,10.0
3871,55.2389705882353,10.0
3872,55.3937693498452,10.0
3873,56.690208978328165,10.0
3874,61.13099845201238,10.0
3875,53.410410216718276,10.0
3876,55.20994582043344,10.0
3877,59.16215170278638,10.0
3878,55.41795665634676,10.0
3879,57.76412538699691,10.0
3880,55.86300309597524,10.0
3881,52.201044891640855,10.0
3882,58.91060371517027,10.0
3883,56.54024767801858,10.0
3884,56.627321981424146,10.0
3885,53.603908668730654,10.0
3886,55.4469814241486,10.0
3887,57.83184984520124,10.0
3888,56.63215944272446,10.0
3889,53.49264705882353,10.0
3890,50.93846749226007,10.0
3891,57.314241486068106,10.0
3892,58.41234520123839,10.0
3893,56.41447368421053,10.0
3894,60.27960526315789,10.0
3895,57.082043343653254,10.0
3896,54.880998452012385,10.0
3897,59.32178792569659,10.0
3898,58.79934210526317,10.0
3899,55.42763157894736,10.0
3900,55.505030959752325,10.0
3901,58.27689628482972,10.0
3902,55.25832043343652,10.0
3903,56.95626934984519,10.0
3904,54.50367647058823,10.0
3905,58.83320433436532,10.0
3906,56.27418730650156,10.0
3907,57.69640092879257,10.0
3908,58.93962848297213,10.0
3909,54.83262383900929,10.0
3910,57.328753869969034,10.0
3911,54.813273993808046,10.0
3912,54.46497678018575,10.0
3913,54.14570433436532,10.0
3914,58.204334365325074,10.0
3915,51.901122291021665,10.0
3916,56.153250773993804,10.0
3917,50.96265479876162,10.0
3918,58.6155185758514,10.0
3919,52.87345201238389,10.0
3920,59.6313854489164,10.0
3921,58.22852167182663,10.0
3922,56.14357585139319,10.0
3923,56.3999613003096,10.0
3924,55.51470588235294,10.0
3925,55.62596749226007,10.0
3926,62.38390092879257,10.0
3927,60.04740712074304,10.0
3928,58.238196594427244,10.0
3929,54.52786377708978,10.0
3930,59.36048761609907,10.0
3931,53.91834365325077,10.0
3932,59.336300309597526,10.0
3933,59.16215170278638,10.0
3934,56.39512383900929,10.0
3935,57.91408668730651,10.0
3936,53.04276315789474,10.0
3937,57.03850619195047,10.0
3938,56.87403250773995,10.0
3939,57.50290247678019,10.0
3940,59.67008513931888,10.0
3941,57.043343653250766,10.0
3942,54.842298761609904,10.0
3943,56.83533281733746,10.0
3944,55.93072755417957,10.0
3945,59.534636222910216,10.0
3946,57.40131578947369,10.0
3947,55.96942724458204,10.0
3948,60.86010061919505,10.0
3949,56.53057275541796,10.0
3950,57.93343653250774,10.0
3951,54.74071207430341,10.0
3952,55.97426470588235,10.0
3953,58.12693498452012,10.0
3954,56.380611455108365,10.0
3955,58.23335913312694,10.0
3956,56.02747678018575,10.0
3957,58.17047213622292,10.0
3958,53.67163312693497,10.0
3959,59.133126934984524,10.0
3960,56.77244582043344,10.0
3961,54.7407120743034,10.0
3962,59.099264705882355,10.0
3963,54.91002321981425,10.0
3964,54.00541795665634,10.0
3965,58.484907120743024,10.0
3966,60.46342879256966,10.0
3967,57.744775541795654,10.0
3968,58.039860681114554,10.0
3969,56.206462848297214,10.0
3970,60.308630030959755,10.0
3971,57.0578560371517,10.0
3972,55.91137770897833,10.0
3973,59.350812693498455,10.0
3974,57.03850619195047,10.0
3975,57.352941176470594,10.0
3976,56.090363777089784,10.0
3977,55.51954334365325,10.0
3978,59.25890092879256,10.0
3979,56.59829721362229,10.0
3980,60.361842105263165,10.0
3981,53.54585913312694,10.0
3982,55.64047987616099,10.0
3983,54.15054179566564,10.0
3984,57.25135448916408,10.0
3985,58.97349071207431,10.0
3986,57.17395510835913,10.0
3987,56.03231424148607,10.0
3988,57.48839009287925,10.0
3989,56.525735294117645,10.0
3990,55.18092105263158,10.0
3991,52.2155572755418,10.0
3992,58.40267027863777,10.0
3993,64.13989938080498,10.0
3994,55.12287151702786,10.0
3995,55.05998452012384,10.0
3996,55.14705882352941,10.0
3997,59.46207430340557,10.0
3998,56.65150928792569,10.0
3999,57.98664860681114,10.0
4000,54.71652476780185,10.0
4001,58.83804179566564,10.0
4002,54.72136222910216,10.0
4003,56.67569659442725,10.0
4004,52.225232198142415,10.0
4005,54.7358746130031,10.0
4006,58.19465944272445,10.0
4007,57.130417956656345,10.0
4008,57.99148606811145,10.0
4009,54.44078947368421,10.0
4010,53.74903250773995,10.0
4011,57.45936532507739,10.0
4012,51.954334365325074,10.0
4013,56.4483359133127,10.0
4014,55.674342105263165,10.0
4015,53.15886222910217,10.0
4016,55.28250773993808,10.0
4017,55.630804953560364,10.0
4018,59.55398606811145,10.0
4019,54.02960526315788,10.0
4020,57.648026315789465,10.0
4021,55.306695046439636,10.0
4022,58.10274767801858,10.0
4023,58.54779411764706,10.0
4024,55.73239164086688,10.0
4025,53.75386996904025,10.0
4026,56.25,10.0
4027,55.23413312693499,10.0
4028,57.75928792569658,10.0
4029,58.044698142414866,10.0
4030,57.72542569659443,10.0
4031,56.796633126934985,10.0
4032,55.67917956656347,10.0
4033,54.86648606811145,10.0
4034,53.64744582043344,10.0
4035,56.075851393188856,10.0
4036,56.477360681114554,10.0
4037,58.10274767801858,10.0
4038,56.588622291021665,10.0
4039,54.223103715170275,10.0
4040,55.4421439628483,10.0
4041,59.32662538699691,10.0
4042,61.634094427244584,10.0
4043,55.688854489164086,10.0
4044,59.30727554179567,10.0
4045,54.411764705882355,10.0
4046,53.95220588235294,10.0
4047,59.17182662538699,10.0
4048,55.57759287925697,10.0
4049,56.443498452012385,10.0
4050,54.58107585139319,10.0
4051,55.12287151702786,10.0
4052,59.65073529411764,10.0
4053,54.411764705882355,10.0
4054,57.84152476780186,10.0
4055,56.7530959752322,10.0
4056,59.341137770897824,10.0
4057,55.364744582043336,10.0
4058,57.47871517027865,10.0
4059,57.11590557275541,10.0
4060,57.60932662538699,10.0
4061,56.10971362229101,10.0
4062,57.68188854489164,10.0
4063,55.88235294117647,10.0
4064,54.28115325077399,10.0
4065,57.08204334365325,10.0
4066,56.298374613003105,10.0
4067,57.34810371517028,10.0
4068,54.48916408668731,10.0
4069,55.85816563467492,10.0
4070,58.504256965944265,10.0
4071,58.252708978328165,10.0
4072,56.04682662538699,10.0
4073,56.17743808049536,10.0
4074,59.06056501547988,10.0
4075,61.982391640866865,10.0
4076,53.357198142414866,10.0
4077,57.27554179566563,10.0
4078,56.07101393188855,10.0
4079,54.14570433436533,10.0
4080,52.747678018575854,10.0
4081,50.512770897832816,10.0
4082,54.48432662538699,10.0
4083,54.94872291021672,10.0
4084,55.500193498452006,10.0
4085,56.61764705882354,10.0
4086,57.67705108359134,10.0
4087,55.577592879256976,10.0
4088,56.98529411764706,10.0
4089,56.12906346749225,10.0
4090,56.6515092879257,10.0
4091,56.91756965944273,10.0
4092,56.20162538699691,10.0
4093,56.56927244582044,10.0
4094,57.99632352941177,10.0
4095,60.85042569659442,10.0
4096,58.76547987616099,10.0
4097,56.037151702786375,10.0
4098,57.02399380804953,10.0
4099,54.61977554179567,10.0
4100,56.29837461300309,10.0
4101,58.23819659442726,10.0
4102,58.08339783281734,10.0
4103,52.689628482972125,10.0
4104,55.993614551083596,10.0
4105,56.57410990712074,10.0
4106,54.87616099071209,10.0
4107,55.446981424148596,10.0
4108,59.09442724458204,10.0
4109,54.731037151702786,10.0
4110,53.96188080495356,10.0
4111,58.95897832817337,10.0
4112,56.675696594427244,10.0
4113,58.27689628482972,10.0
4114,53.19756191950465,10.0
4115,58.093072755417964,10.0
4116,54.76489938080495,10.0
4117,59.48626160990711,10.0
4118,55.22929566563467,10.0
4119,61.40189628482972,10.0
4120,55.451818885448915,10.0
4121,57.19330495356038,10.0
4122,56.1484133126935,10.0
4123,54.46497678018576,10.0
4124,58.151122291021665,10.0
4125,55.5969427244582,10.0
4126,56.578947368421055,10.0
4127,55.39860681114551,10.0
4128,58.083397832817326,10.0
4129,57.92859907120743,10.0
4130,58.7703173374613,10.0
4131,57.415828173374614,10.0
4132,57.9624613003096,10.0
4133,51.91079721362229,10.0
4134,58.43169504643963,10.0
4135,58.05921052631578,10.0
4136,58.189821981424146,10.0
4137,59.59752321981425,10.0
4138,55.219620743034056,10.0
4139,56.03231424148607,10.0
4140,57.46420278637771,10.0
4141,56.66602167182663,10.0
4142,59.68459752321981,10.0
4143,53.63777089783281,10.0
4144,52.481617647058826,10.0
4145,57.92376160990712,10.0
4146,58.233359133126925,10.0
4147,57.0046439628483,10.0
4148,56.91273219814242,10.0
4149,61.280959752321984,10.0
4150,57.33359133126935,10.0
4151,56.37577399380804,10.0
4152,57.904411764705884,10.0
4153,53.73935758513932,10.0
4154,59.379837461300305,10.0
4155,56.58378482972137,10.0
4156,57.79798761609908,10.0
4157,56.76760835913313,10.0
4158,57.09171826625387,10.0
4159,59.96033281733746,10.0
4160,57.59481424148606,10.0
4161,57.72058823529412,10.0
4162,57.536764705882355,10.0
4163,57.57546439628483,10.0
4164,55.43246904024767,10.0
4165,54.005417956656345,10.0
4166,56.12906346749226,10.0
4167,56.283862229102155,10.0
4168,59.360487616099064,10.0
4169,62.3500386996904,10.0
4170,52.78637770897833,10.0
4171,54.35371517027864,10.0
4172,56.16292569659442,10.0
4173,57.12074303405573,10.0
4174,54.76973684210526,10.0
4175,58.06404798761611,10.0
4176,58.99284055727554,10.0
4177,53.057275541795676,10.0
4178,53.66679566563467,10.0
4179,58.489744582043336,10.0
4180,54.85681114551084,10.0
4181,57.14009287925697,10.0
4182,56.95143188854489,10.0
4183,56.5499226006192,10.0
4184,59.26373839009288,10.0
4185,55.737229102167184,10.0
4186,54.663312693498455,10.0
4187,59.08958978328173,10.0
4188,55.91621517027864,10.0
4189,58.015673374613,10.0
4190,57.17879256965945,10.0
4191,55.4469814241486,10.0
4192,58.673568111455104,10.0
4193,58.63486842105262,10.0
4194,55.297020123839005,10.0
4195,60.50696594427244,10.0
4196,56.78212074303405,10.0
4197,52.47194272445821,10.0
4198,54.80359907120743,10.0
4199,56.762770897832816,10.0
4200,58.58165634674923,10.0
4201,57.22232972136222,10.0
4202,57.45452786377709,10.0
4203,58.929953560371516,10.0
4204,56.44349845201239,10.0
4205,58.3155959752322,10.0
4206,54.223103715170275,10.0
4207,57.28037925696595,10.0
4208,58.8670665634675,10.0
4209,56.056501547987615,10.0
4210,56.724071207430335,10.0
4211,58.89125386996904,10.0
4212,60.31346749226006,10.0
4213,59.94582043343653,10.0
4214,60.405379256965944,10.0
4215,54.37790247678019,10.0
4216,57.256191950464405,10.0
4217,60.23123065015479,10.0
4218,62.67414860681114,10.0
4219,55.51470588235294,10.0
4220,55.66466718266254,10.0
4221,52.752515479876166,10.0
4222,59.33630030959752,10.0
4223,56.32739938080495,10.0
4224,57.59481424148608,10.0
4225,57.39164086687306,10.0
4226,59.97968266253869,10.0
4227,59.500773993808046,10.0
4228,53.34752321981425,10.0
4229,56.06133900928793,10.0
4230,56.980456656346746,10.0
4231,58.91544117647057,10.0
4232,55.567917956656345,10.0
4233,57.31907894736841,10.0
4234,57.6625386996904,10.0
4235,54.40692724458204,10.0
4236,55.37441950464396,10.0
4237,55.97910216718267,10.0
4238,55.61629256965944,10.0
4239,58.688080495356026,10.0
4240,57.69640092879257,10.0
4241,56.19678792569658,10.0
4242,58.509094427244584,10.0
4243,57.4109907120743,10.0
4244,55.74206656346748,10.0
4245,57.23684210526316,10.0
4246,59.11377708978328,10.0
4247,56.97561919504645,10.0
4248,60.018382352941174,10.0
4249,57.367453560371516,10.0
4250,53.468459752321984,10.0
4251,59.30243808049536,10.0
4252,55.33088235294117,10.0
4253,58.049535603715164,10.0
4254,54.70684984520124,10.0
4255,55.71304179566563,10.0
4256,53.125,10.0
4257,57.3577786377709,10.0
4258,55.02612229102167,10.0
4259,57.304566563467496,10.0
4260,56.30804953560372,10.0
4261,57.923761609907125,10.0
4262,55.195433436532504,10.0
4263,58.76547987616099,10.0
4264,56.64667182662538,10.0
4265,56.31772445820434,10.0
4266,57.04334365325077,10.0
4267,57.328753869969034,10.0
4268,54.702012383900936,10.0
4269,56.646671826625386,10.0
4270,60.16350619195047,10.0
4271,59.452399380804955,10.0
4272,51.054566563467496,10.0
4273,58.465557275541805,10.0
4274,57.164280185758514,10.0
4275,59.50077399380805,10.0
4276,60.81656346749225,10.0
4277,59.1234520123839,10.0
4278,57.8125,10.0
4279,56.1000386996904,10.0
4280,54.50367647058823,10.0
4281,58.20433436532508,10.0
4282,56.559597523219814,10.0
4283,58.325270897832816,10.0
4284,59.9796826625387,10.0
4285,57.406153250774,10.0
4286,55.33088235294116,10.0
4287,55.83397832817337,10.0
4288,59.960332817337466,10.0
4289,56.830495356037154,10.0
4290,56.782120743034056,10.0
4291,56.893382352941174,10.0
4292,53.903831269349844,10.0
4293,59.9264705882353,10.0
4294,60.45859133126934,10.0
4295,60.56017801857586,10.0
4296,57.212654798761605,10.0
