sample_id,accuracy,window_size
0,59.03637770897833,200.0
1,56.559597523219814,200.0
2,61.31965944272445,200.0
3,61.866292569659436,200.0
4,60.71497678018577,200.0
5,57.52708978328173,200.0
6,60.41021671826625,200.0
7,58.09791021671826,200.0
8,61.566369969040245,200.0
9,55.82914086687306,200.0
10,59.65557275541795,200.0
11,58.983165634674926,200.0
12,57.99148606811145,200.0
13,57.23684210526316,200.0
14,58.76547987616099,200.0
15,59.55882352941176,200.0
16,56.56927244582043,200.0
17,55.39376934984519,200.0
18,56.93691950464396,200.0
19,57.768962848297214,200.0
20,57.59965170278638,200.0
21,56.375773993808046,200.0
22,55.3405572755418,200.0
23,58.89609133126935,200.0
24,55.60661764705883,200.0
25,57.66737616099071,200.0
26,57.89957430340557,200.0
27,57.019156346749234,200.0
28,56.43382352941176,200.0
29,54.46981424148607,200.0
30,60.49729102167183,200.0
31,56.94175696594427,200.0
32,57.64802631578947,200.0
33,58.15595975232198,200.0
34,56.511222910216716,200.0
35,57.99148606811145,200.0
36,57.57546439628482,200.0
37,58.24303405572755,200.0
38,57.0046439628483,200.0
39,58.576818885448915,200.0
40,60.45375386996904,200.0
41,58.373645510835914,200.0
42,58.09307275541795,200.0
43,62.29198916408668,200.0
44,59.51528637770898,200.0
45,59.22020123839009,200.0
46,62.02592879256966,200.0
47,59.02670278637771,200.0
48,58.00599845201239,200.0
49,54.19891640866872,200.0
50,57.85119969040248,200.0
51,57.15460526315789,200.0
52,61.058436532507734,200.0
53,57.99632352941177,200.0
54,56.651509287925705,200.0
55,58.16079721362229,200.0
56,58.576818885448915,200.0
57,60.395704334365334,200.0
58,62.55321207430341,200.0
59,57.82217492260062,200.0
60,59.2250386996904,200.0
61,57.68188854489164,200.0
62,57.54160216718267,200.0
63,60.41021671826625,200.0
64,59.49109907120743,200.0
65,57.531927244582036,200.0
66,57.84152476780185,200.0
67,59.84907120743034,200.0
68,59.11377708978328,200.0
69,56.994969040247675,200.0
70,55.4905185758514,200.0
71,56.414473684210535,200.0
72,55.22445820433436,200.0
73,54.66815015479875,200.0
74,60.12964396284829,200.0
75,58.91544117647059,200.0
76,55.58243034055728,200.0
77,59.370162538699695,200.0
78,58.21400928792569,200.0
79,58.625193498452006,200.0
80,58.736455108359124,200.0
81,56.58378482972135,200.0
82,56.859520123839005,200.0
83,55.74690402476781,200.0
84,60.61339009287925,200.0
85,55.70820433436533,200.0
86,57.5609520123839,200.0
87,58.373645510835914,200.0
88,54.80843653250774,200.0
89,59.0218653250774,200.0
90,57.11106811145511,200.0
91,57.15944272445821,200.0
92,55.24380804953561,200.0
93,57.55127708978328,200.0
94,58.09791021671826,200.0
95,61.18421052631578,200.0
96,57.028831269349844,200.0
97,61.39705882352941,200.0
98,59.11861455108359,200.0
99,55.853328173374614,200.0
100,57.92859907120743,200.0
101,58.71226780185758,200.0
102,62.76122291021673,200.0
103,59.578173374612994,200.0
104,57.26102941176471,200.0
105,62.52418730650156,200.0
106,62.161377708978335,200.0
107,58.37848297213622,200.0
108,60.07159442724458,200.0
109,57.89473684210526,200.0
110,57.21749226006192,200.0
111,55.61145510835914,200.0
112,59.91195820433437,200.0
113,61.875967492260074,200.0
114,54.2859907120743,200.0
115,56.20162538699691,200.0
116,61.09713622291021,200.0
117,59.75715944272446,200.0
118,58.05921052631579,200.0
119,57.70123839009289,200.0
120,57.68188854489165,200.0
121,59.4765866873065,200.0
122,56.71923374613004,200.0
123,63.109520123839005,200.0
124,53.99574303405573,200.0
125,58.189821981424146,200.0
126,58.19949690402476,200.0
127,54.60042569659443,200.0
128,60.453753869969034,200.0
129,54.82294891640867,200.0
130,59.45723684210527,200.0
131,58.81869195046439,200.0
132,57.27554179566564,200.0
133,59.587848297213625,200.0
134,61.73084365325079,200.0
135,61.184210526315795,200.0
136,58.50425696594427,200.0
137,58.88641640866873,200.0
138,59.64589783281733,200.0
139,59.61203560371518,200.0
140,59.05089009287925,200.0
141,56.869195046439636,200.0
142,62.88215944272446,200.0
143,57.62383900928793,200.0
144,62.30650154798764,200.0
145,57.5609520123839,200.0
146,58.262383900928796,200.0
147,57.45452786377709,200.0
148,61.16002321981424,200.0
149,61.904992260061924,200.0
150,59.38951238390092,200.0
151,56.06617647058823,200.0
152,57.50773993808048,200.0
153,61.943691950464384,200.0
154,59.18150154798761,200.0
155,56.82082043343654,200.0
156,59.200851393188856,200.0
157,56.43866099071207,200.0
158,62.05979102167183,200.0
159,62.68382352941177,200.0
160,58.26722136222911,200.0
161,62.03560371517027,200.0
162,58.15595975232198,200.0
163,61.527670278637785,200.0
164,60.86010061919504,200.0
165,57.47871517027865,200.0
166,60.52631578947368,200.0
167,60.690789473684205,200.0
168,58.562306501547994,200.0
169,59.29276315789474,200.0
170,56.970781733746136,200.0
171,58.673568111455104,200.0
172,63.0514705882353,200.0
173,62.1517027863777,200.0
174,61.96304179566564,200.0
175,59.089589783281724,200.0
176,59.5733359133127,200.0
177,58.05437306501548,200.0
178,61.450270897832816,200.0
179,55.87751547987616,200.0
180,56.607972136222905,200.0
181,54.60526315789474,200.0
182,56.47252321981425,200.0
183,54.731037151702786,200.0
184,58.88641640866872,200.0
185,62.11784055727554,200.0
186,58.557469040247675,200.0
187,57.449690402476776,200.0
188,58.591331269349844,200.0
189,61.56636996904023,200.0
190,55.87751547987616,200.0
191,63.08049535603715,200.0
192,60.44891640866872,200.0
193,60.22639318885448,200.0
194,56.898219814241486,200.0
195,58.34462074303406,200.0
196,62.224264705882355,200.0
197,56.99013157894737,200.0
198,60.26993034055728,200.0
199,56.91756965944273,200.0
200,57.672213622291025,200.0
201,58.789667182662534,200.0
202,57.03366873065016,200.0
203,59.316950464396285,200.0
204,58.90092879256966,200.0
205,58.407507739938076,200.0
206,61.2906346749226,200.0
207,60.390866873065015,200.0
208,56.298374613003105,200.0
209,56.53541021671827,200.0
210,58.38815789473685,200.0
211,59.578173374613,200.0
212,62.30650154798761,200.0
213,54.98258513931888,200.0
214,55.282507739938076,200.0
215,59.99903250773994,200.0
216,64.06733746130031,200.0
217,59.61687306501548,200.0
218,60.46342879256967,200.0
219,54.42627708978327,200.0
220,58.08339783281733,200.0
221,58.576818885448915,200.0
222,55.5437306501548,200.0
223,56.94175696594427,200.0
224,58.441369969040245,200.0
225,58.74613003095975,200.0
226,56.08068885448916,200.0
227,56.10971362229102,200.0
228,64.96226780185759,200.0
229,58.86222910216719,200.0
230,57.8657120743034,200.0
231,61.256772445820445,200.0
232,61.70181888544891,200.0
233,57.6625386996904,200.0
234,59.19601393188855,200.0
235,58.69775541795665,200.0
236,62.27747678018576,200.0
237,57.957623839009294,200.0
238,56.17260061919505,200.0
239,57.95762383900929,200.0
240,58.19949690402477,200.0
241,57.47387770897833,200.0
242,60.279605263157876,200.0
243,65.77012383900927,200.0
244,62.01625386996904,200.0
245,59.805534055727556,200.0
246,58.96865325077399,200.0
247,56.68053405572756,200.0
248,56.854682662538686,200.0
249,60.04256965944273,200.0
250,57.314241486068106,200.0
251,53.840944272445824,200.0
252,59.08958978328174,200.0
253,57.991486068111456,200.0
254,60.60371517027864,200.0
255,59.5249613003096,200.0
256,60.1296439628483,200.0
257,57.44001547987616,200.0
258,56.31288699690403,200.0
259,56.87403250773993,200.0
260,55.659829721362215,200.0
261,61.75019349845202,200.0
262,59.26857585139319,200.0
263,60.419891640866865,200.0
264,57.70123839009288,200.0
265,59.02670278637771,200.0
266,59.93130804953561,200.0
267,59.350812693498455,200.0
268,57.95762383900928,200.0
269,57.14493034055727,200.0
270,57.096555727554176,200.0
271,59.18150154798761,200.0
272,63.743227554179555,200.0
273,61.36319659442723,200.0
274,59.60236068111455,200.0
275,62.287151702786375,200.0
276,59.93130804953561,200.0
277,58.035023219814235,200.0
278,57.14009287925697,200.0
279,62.57256191950464,200.0
280,60.337654798761605,200.0
281,57.60448916408669,200.0
282,58.068885448916404,200.0
283,60.59887770897832,200.0
284,59.408862229102155,200.0
285,65.17995356037152,200.0
286,55.5437306501548,200.0
287,58.50425696594427,200.0
288,55.86300309597523,200.0
289,60.23606811145511,200.0
290,60.26509287925696,200.0
291,57.62383900928793,200.0
292,55.66466718266254,200.0
293,59.69910990712074,200.0
294,59.78618421052631,200.0
295,62.96923374613004,200.0
296,61.44543343653251,200.0
297,57.164280185758514,200.0
298,57.701238390092875,200.0
299,62.29198916408668,200.0
300,61.76470588235294,200.0
301,60.41021671826626,200.0
302,56.00328947368421,200.0
303,58.95897832817338,200.0
304,59.74748452012384,200.0
305,59.476586687306494,200.0
306,54.88099845201238,200.0
307,58.98316563467492,200.0
308,58.03018575851393,200.0
309,58.13177244582043,200.0
310,58.64938080495355,200.0
311,58.005998452012385,200.0
312,57.87054953560372,200.0
313,57.585139318885446,200.0
314,59.515286377708975,200.0
315,58.07856037151703,200.0
316,57.83668730650156,200.0
317,58.223684210526315,200.0
318,58.68808049535603,200.0
319,57.74961300309597,200.0
320,61.856617647058826,200.0
321,55.238970588235304,200.0
322,56.87886996904024,200.0
323,55.12770897832818,200.0
324,59.732972136222905,200.0
325,57.29489164086687,200.0
326,60.6424148606811,200.0
327,56.206462848297214,200.0
328,58.37364551083592,200.0
329,54.290828173374614,200.0
330,55.219620743034056,200.0
331,59.984520123839005,200.0
332,57.372291021671835,200.0
333,57.686726006191954,200.0
334,58.359133126934985,200.0
335,60.028057275541805,200.0
336,61.01006191950464,200.0
337,58.7219427244582,200.0
338,58.77515479876161,200.0
339,54.95356037151703,200.0
340,57.31907894736842,200.0
341,58.60584365325077,200.0
342,57.67705108359133,200.0
343,63.549729102167184,200.0
344,59.452399380804955,200.0
345,59.22987616099071,200.0
346,57.58030185758513,200.0
347,59.92647058823529,200.0
348,57.546439628482965,200.0
349,57.938273993808046,200.0
350,58.610681114551085,200.0
351,59.718459752321984,200.0
352,59.4282120743034,200.0
353,58.15112229102167,200.0
354,57.014318885448915,200.0
355,58.243034055727556,200.0
356,56.79179566563467,200.0
357,62.37906346749225,200.0
358,63.46749226006191,200.0
359,58.80901702786377,200.0
360,55.838815789473685,200.0
361,59.09442724458204,200.0
362,61.17453560371517,200.0
363,63.085332817337466,200.0
364,58.325270897832816,200.0
365,57.294891640866865,200.0
366,59.515286377708975,200.0
367,57.9140866873065,200.0
368,60.82623839009288,200.0
369,59.316950464396285,200.0
370,58.049535603715164,200.0
371,57.08688080495356,200.0
372,58.330108359133135,200.0
373,59.09926470588235,200.0
374,58.726780185758514,200.0
375,56.39028637770898,200.0
376,56.40479876160991,200.0
377,57.35777863777089,200.0
378,59.40402476780186,200.0
379,59.39434984520125,200.0
380,58.66389318885449,200.0
381,58.53811919504644,200.0
382,58.19949690402477,200.0
383,54.76006191950464,200.0
384,61.76470588235294,200.0
385,58.441369969040245,200.0
386,57.46420278637771,200.0
387,58.14628482972137,200.0
388,59.25890092879257,200.0
389,54.590750773993804,200.0
390,58.305921052631575,200.0
391,56.356424148606806,200.0
392,61.15518575851394,200.0
393,61.237422600619176,200.0
394,58.95897832817337,200.0
395,55.58243034055728,200.0
396,58.900928792569665,200.0
397,61.93885448916409,200.0
398,59.61203560371517,200.0
399,57.28037925696594,200.0
400,60.07159442724458,200.0
401,59.86358359133127,200.0
402,59.58784829721362,200.0
403,57.29005417956656,200.0
404,59.10410216718267,200.0
405,55.17608359133127,200.0
406,56.08552631578948,200.0
407,63.01760835913313,200.0
408,62.48548761609907,200.0
409,55.451818885448915,200.0
410,59.95065789473685,200.0
411,58.27205882352941,200.0
412,57.604489164086694,200.0
413,61.866292569659436,200.0
414,60.78270123839008,200.0
415,61.59539473684211,200.0
416,59.39434984520125,200.0
417,56.965944272445824,200.0
418,57.43517801857584,200.0
419,56.308049535603715,200.0
420,57.49322755417956,200.0
421,60.424729102167184,200.0
422,61.300309597523224,200.0
423,58.86706656346748,200.0
424,60.342492260061924,200.0
425,58.209171826625386,200.0
426,56.68053405572754,200.0
427,60.903637770897845,200.0
428,61.64860681114551,200.0
429,58.75580495356037,200.0
430,58.43653250773994,200.0
431,56.94175696594427,200.0
432,58.25270897832817,200.0
433,59.602360681114554,200.0
434,58.25270897832817,200.0
435,58.07372291021672,200.0
436,59.679760061919495,200.0
437,58.53328173374613,200.0
438,54.59075077399381,200.0
439,60.80205108359132,200.0
440,58.77515479876162,200.0
441,53.574883900928796,200.0
442,59.85874613003096,200.0
443,59.776509287925705,200.0
444,61.96304179566564,200.0
445,61.363196594427244,200.0
446,61.295472136222905,200.0
447,58.64454334365325,200.0
448,58.36880804953561,200.0
449,56.22581269349845,200.0
450,57.22232972136223,200.0
451,59.505611455108365,200.0
452,56.88854489164087,200.0
453,58.01083591331269,200.0
454,61.914667182662534,200.0
455,56.41931114551083,200.0
456,56.67085913312694,200.0
457,59.49593653250774,200.0
458,60.352167182662534,200.0
459,57.014318885448915,200.0
460,58.325270897832816,200.0
461,59.81037151702786,200.0
462,54.69233746130031,200.0
463,57.88022445820434,200.0
464,57.410990712074295,200.0
465,57.83668730650155,200.0
466,57.8657120743034,200.0
467,58.73645510835914,200.0
468,54.54237616099071,200.0
469,60.71013931888545,200.0
470,59.09926470588235,200.0
471,59.16698916408668,200.0
472,61.41157120743034,200.0
473,61.73084365325077,200.0
474,57.115905572755416,200.0
475,58.68808049535604,200.0
476,60.661764705882355,200.0
477,55.35990712074304,200.0
478,58.630030959752325,200.0
479,59.2734133126935,200.0
480,61.1358359133127,200.0
481,57.619001547987615,200.0
482,60.66660216718266,200.0
483,58.99284055727554,200.0
484,61.856617647058826,200.0
485,62.58707430340558,200.0
486,61.91950464396285,200.0
487,56.05650154798761,200.0
488,60.245743034055735,200.0
489,58.10274767801858,200.0
490,58.19949690402477,200.0
491,55.717879256965944,200.0
492,58.78482972136223,200.0
493,59.64589783281733,200.0
494,57.120743034055735,200.0
495,55.5969427244582,200.0
496,59.5733359133127,200.0
497,59.69910990712074,200.0
498,58.5719814241486,200.0
499,59.50077399380806,200.0
500,57.49322755417956,200.0
501,58.27689628482971,200.0
502,57.7157507739938,200.0
503,57.99148606811144,200.0
504,55.41311919504644,200.0
505,59.974845201238395,200.0
506,56.849845201238395,200.0
507,59.752321981424146,200.0
508,57.45936532507739,200.0
509,56.29353715170278,200.0
510,59.84423374613002,200.0
511,58.117260061919495,200.0
512,57.33359133126934,200.0
513,54.65363777089784,200.0
514,62.44678792569659,200.0
515,57.178792569659436,200.0
516,55.60661764705881,200.0
517,56.714396284829725,200.0
518,58.90576625386996,200.0
519,54.044117647058826,200.0
520,60.090944272445824,200.0
521,55.16640866873064,200.0
522,57.981811145510825,200.0
523,58.983165634674926,200.0
524,61.04876160990712,200.0
525,63.138544891640855,200.0
526,56.9562693498452,200.0
527,57.169117647058826,200.0
528,58.07856037151702,200.0
529,57.48355263157894,200.0
530,55.52921826625388,200.0
531,57.517414860681114,200.0
532,59.45723684210526,200.0
533,56.545085139318886,200.0
534,56.60797213622291,200.0
535,55.28250773993808,200.0
536,55.92589009287926,200.0
537,61.81791795665634,200.0
538,63.49167956656347,200.0
539,57.67221362229102,200.0
540,56.762770897832816,200.0
541,57.57546439628483,200.0
542,56.661184210526315,200.0
543,56.14357585139319,200.0
544,62.4516253869969,200.0
545,58.49941950464396,200.0
546,58.45588235294118,200.0
547,59.520123839009294,200.0
548,56.3999613003096,200.0
549,58.09791021671827,200.0
550,61.06327399380807,200.0
551,59.33146284829722,200.0
552,61.203560371517035,200.0
553,56.796633126934985,200.0
554,58.51393188854489,200.0
555,60.095781733746136,200.0
556,58.52844427244582,200.0
557,56.99013157894737,200.0
558,56.525735294117645,200.0
559,58.659055727554176,200.0
560,60.23606811145511,200.0
561,59.56366099071208,200.0
562,59.49593653250774,200.0
563,61.508320433436516,200.0
564,57.807662538699695,200.0
565,57.232004643962846,200.0
566,57.628676470588225,200.0
567,58.85255417956656,200.0
568,57.62867647058824,200.0
569,57.98181114551084,200.0
570,59.940982972136226,200.0
571,60.95684984520124,200.0
572,57.140092879256954,200.0
573,57.61900154798761,200.0
574,58.58165634674922,200.0
575,57.5609520123839,200.0
576,57.77863777089784,200.0
577,59.20568885448917,200.0
578,54.94872291021672,200.0
579,60.37635448916408,200.0
580,58.37364551083591,200.0
581,57.72542569659442,200.0
582,59.81520897832817,200.0
583,60.13931888544892,200.0
584,59.196013931888544,200.0
585,61.90015479876162,200.0
586,58.95897832817337,200.0
587,59.55398606811145,200.0
588,63.738390092879264,200.0
589,60.37151702786379,200.0
590,52.767027863777095,200.0
591,62.88699690402477,200.0
592,56.97561919504644,200.0
593,55.016447368421055,200.0
594,59.6797600619195,200.0
595,57.88989938080495,200.0
596,59.46691176470589,200.0
597,60.289280185758514,200.0
598,58.76547987616099,200.0
599,56.43866099071206,200.0
600,57.84152476780186,200.0
601,58.005998452012385,200.0
602,58.15112229102167,200.0
603,58.34945820433437,200.0
604,54.50851393188856,200.0
605,57.46904024767802,200.0
606,56.25483746130031,200.0
607,57.202979876160995,200.0
608,58.45588235294118,200.0
609,57.522252321981426,200.0
610,57.70123839009288,200.0
611,59.16215170278638,200.0
612,59.534636222910216,200.0
613,58.24303405572755,200.0
614,56.73858359133128,200.0
615,60.73432662538701,200.0
616,56.58378482972136,200.0
617,58.14144736842105,200.0
618,56.90789473684211,200.0
619,61.34384674922599,200.0
620,56.61764705882352,200.0
621,56.35158668730651,200.0
622,61.55185758513932,200.0
623,56.33223684210526,200.0
624,60.37635448916409,200.0
625,61.32449690402477,200.0
626,57.038506191950454,200.0
627,57.07720588235294,200.0
628,60.594040247678016,200.0
629,62.01141640866872,200.0
630,59.950657894736835,200.0
631,57.85603715170279,200.0
632,56.661184210526315,200.0
633,63.312693498452006,200.0
634,59.466911764705884,200.0
635,61.20839783281734,200.0
636,63.133707430340564,200.0
637,57.444852941176464,200.0
638,61.232585139318886,200.0
639,55.00193498452012,200.0
640,55.65982972136223,200.0
641,60.25058049535604,200.0
642,58.33978328173375,200.0
643,57.02399380804953,200.0
644,61.40673374613002,200.0
645,61.571207430340564,200.0
646,60.34732972136223,200.0
647,59.48142414860682,200.0
648,59.09926470588236,200.0
649,57.8608746130031,200.0
650,60.45375386996904,200.0
651,58.14628482972137,200.0
652,59.63622291021672,200.0
653,56.00328947368421,200.0
654,59.370162538699695,200.0
655,57.178792569659436,200.0
656,60.80688854489164,200.0
657,55.587267801857585,200.0
658,63.414280185758514,200.0
659,58.34945820433437,200.0
660,55.180921052631575,200.0
661,55.56791795665635,200.0
662,58.286571207430335,200.0
663,60.729489164086694,200.0
664,61.198722910216716,200.0
665,64.18827399380807,200.0
666,56.12422600619195,200.0
667,59.86358359133126,200.0
668,59.10893962848297,200.0
669,56.62248452012384,200.0
670,56.39996130030959,200.0
671,60.45375386996904,200.0
672,60.86977554179566,200.0
673,55.75657894736842,200.0
674,58.97832817337462,200.0
675,59.331462848297214,200.0
676,56.767608359133135,200.0
677,62.26780185758515,200.0
678,58.6203560371517,200.0
679,57.91892414860681,200.0
680,57.091718266253864,200.0
681,58.581656346749234,200.0
682,57.69156346749226,200.0
683,57.261029411764696,200.0
684,59.75715944272446,200.0
685,57.483552631578945,200.0
686,57.98664860681114,200.0
687,56.19678792569659,200.0
688,60.782701238390096,200.0
689,60.70046439628483,200.0
690,60.17801857585139,200.0
691,59.13312693498453,200.0
692,63.09500773993806,200.0
693,58.53811919504645,200.0
694,57.16428018575851,200.0
695,58.05921052631579,200.0
696,60.661764705882355,200.0
697,58.649380804953566,200.0
698,58.29624613003096,200.0
699,61.57120743034055,200.0
700,57.97213622291022,200.0
701,63.515866873065015,200.0
702,61.600232198142415,200.0
703,56.05650154798761,200.0
704,62.94020897832817,200.0
705,56.99980650154799,200.0
706,58.842879256965944,200.0
707,60.308630030959755,200.0
708,59.3266253869969,200.0
709,58.141447368421055,200.0
710,60.35216718266255,200.0
711,60.27960526315789,200.0
712,59.55882352941176,200.0
713,59.74748452012385,200.0
714,58.08339783281735,200.0
715,58.78966718266254,200.0
716,58.542956656346746,200.0
717,59.03637770897833,200.0
718,54.64880030959752,200.0
719,58.84771671826625,200.0
720,58.17530959752322,200.0
721,59.55882352941177,200.0
722,61.33417182662539,200.0
723,59.63138544891641,200.0
724,59.79102167182663,200.0
725,57.97697368421053,200.0
726,57.57546439628483,200.0
727,58.963815789473685,200.0
728,55.403444272445824,200.0
729,61.44059597523219,200.0
730,59.37016253869969,200.0
731,55.76141640866873,200.0
732,59.060565015479874,200.0
733,59.83455882352942,200.0
734,57.08688080495356,200.0
735,58.32527089783282,200.0
736,58.08339783281733,200.0
737,58.50909442724458,200.0
738,56.98529411764706,200.0
739,59.64589783281734,200.0
740,60.913312693498455,200.0
741,59.98935758513932,200.0
742,58.43653250773994,200.0
743,58.00116099071207,200.0
744,58.52844427244582,200.0
745,57.18846749226005,200.0
746,58.03502321981424,200.0
747,60.661764705882355,200.0
748,57.31907894736842,200.0
749,57.32391640866873,200.0
750,61.04392414860681,200.0
751,57.720588235294116,200.0
752,55.403444272445824,200.0
753,57.527089783281724,200.0
754,55.11319659442725,200.0
755,59.9313080495356,200.0
756,55.964589783281724,200.0
757,57.74477554179566,200.0
758,56.395123839009294,200.0
759,59.67976006191951,200.0
760,57.768962848297214,200.0
761,58.83804179566564,200.0
762,58.57198142414861,200.0
763,60.86493808049536,200.0
764,59.97484520123839,200.0
765,58.891253869969034,200.0
766,56.37093653250774,200.0
767,60.76818885448915,200.0
768,59.39918730650155,200.0
769,55.800116099071204,200.0
770,56.27902476780185,200.0
771,57.80282507739939,200.0
772,57.24167956656348,200.0
773,55.800116099071204,200.0
774,58.983165634674926,200.0
775,54.86648606811145,200.0
776,57.24167956656347,200.0
777,63.5061919504644,200.0
778,57.096555727554176,200.0
779,54.62945046439628,200.0
780,53.51683436532508,200.0
781,58.32527089783281,200.0
782,56.9078947368421,200.0
783,59.95549535603715,200.0
784,60.42956656346749,200.0
785,62.40325077399381,200.0
786,61.455108359133135,200.0
787,59.58784829721362,200.0
788,57.09171826625387,200.0
789,58.52360681114551,200.0
790,62.84829721362228,200.0
791,58.01083591331269,200.0
792,58.78482972136223,200.0
793,59.20568885448917,200.0
794,57.29005417956656,200.0
795,63.38525541795667,200.0
796,56.999806501547994,200.0
797,57.08688080495356,200.0
798,59.466911764705884,200.0
799,59.26373839009288,200.0
800,58.27205882352941,200.0
801,58.71226780185758,200.0
802,55.737229102167184,200.0
803,59.26373839009288,200.0
804,55.91137770897833,200.0
805,55.18575851393188,200.0
806,59.82004643962848,200.0
807,62.65963622291021,200.0
808,58.56230650154799,200.0
809,60.54082817337461,200.0
810,62.68866099071207,200.0
811,61.058436532507734,200.0
812,57.440015479876166,200.0
813,57.33842879256966,200.0
814,62.48065015479875,200.0
815,59.78618421052631,200.0
816,59.268575851393194,200.0
817,59.65557275541796,200.0
818,59.534636222910216,200.0
819,55.74206656346749,200.0
820,59.21052631578947,200.0
821,56.119388544891635,200.0
822,55.66466718266254,200.0
823,54.948722910216716,200.0
824,56.003289473684205,200.0
825,58.73161764705883,200.0
826,58.2672213622291,200.0
827,57.98181114551084,200.0
828,57.49322755417956,200.0
829,55.72755417956657,200.0
830,55.42279411764706,200.0
831,57.52708978328174,200.0
832,60.361842105263165,200.0
833,57.98181114551083,200.0
834,56.76277089783281,200.0
835,61.30030959752321,200.0
836,58.068885448916404,200.0
837,58.900928792569665,200.0
838,56.443498452012385,200.0
839,57.22716718266253,200.0
840,61.0874613003096,200.0
841,60.1296439628483,200.0
842,60.758513931888544,200.0
843,59.18150154798761,200.0
844,59.07991486068112,200.0
845,56.8546826625387,200.0
846,57.71575077399381,200.0
847,57.67705108359134,200.0
848,56.67569659442725,200.0
849,62.01625386996904,200.0
850,59.23471362229103,200.0
851,61.871130030959755,200.0
852,60.86977554179566,200.0
853,52.10913312693498,200.0
854,57.444852941176464,200.0
855,58.91544117647058,200.0
856,59.684597523219814,200.0
857,56.45317337461301,200.0
858,60.65208978328174,200.0
859,57.701238390092875,200.0
860,59.00251547987616,200.0
861,56.52573529411764,200.0
862,60.13448142414861,200.0
863,59.35565015479875,200.0
864,60.990712074303396,200.0
865,62.200077399380824,200.0
866,59.63138544891641,200.0
867,54.50367647058824,200.0
868,57.66737616099072,200.0
869,54.9874226006192,200.0
870,57.20297987616099,200.0
871,59.075077399380795,200.0
872,59.46691176470588,200.0
873,56.14841331269349,200.0
874,55.09868421052632,200.0
875,57.74477554179566,200.0
876,57.16911764705883,200.0
877,57.26586687306502,200.0
878,57.49806501547988,200.0
879,62.20975232198142,200.0
880,59.59268575851394,200.0
881,62.36455108359132,200.0
882,61.537345201238395,200.0
883,60.04740712074303,200.0
884,56.31288699690402,200.0
885,61.513157894736835,200.0
886,63.095007739938076,200.0
887,61.16486068111456,200.0
888,58.75580495356037,200.0
889,57.415828173374614,200.0
890,60.714976780185744,200.0
891,56.72890866873065,200.0
892,57.41582817337461,200.0
893,61.30030959752321,200.0
894,57.62383900928791,200.0
895,59.52012383900928,200.0
896,60.018382352941174,200.0
897,61.38254643962849,200.0
898,56.772445820433425,200.0
899,57.59481424148607,200.0
900,59.399187306501545,200.0
901,60.086106811145505,200.0
902,53.333010835913306,200.0
903,54.58591331269349,200.0
904,61.21807275541795,200.0
905,56.75793343653251,200.0
906,57.870549535603715,200.0
907,57.54160216718267,200.0
908,59.55882352941177,200.0
909,56.59829721362229,200.0
910,58.731617647058826,200.0
911,59.732972136222905,200.0
912,62.56772445820434,200.0
913,56.5547600619195,200.0
914,56.782120743034056,200.0
915,57.6141640866873,200.0
916,58.233359133126946,200.0
917,62.35487616099071,200.0
918,61.03908668730651,200.0
919,55.7469040247678,200.0
920,56.77728328173376,200.0
921,58.73161764705882,200.0
922,56.811145510835914,200.0
923,57.14976780185758,200.0
924,57.077205882352935,200.0
925,61.058436532507734,200.0
926,57.38196594427244,200.0
927,56.211300309597526,200.0
928,61.900154798761605,200.0
929,55.9500773993808,200.0
930,59.76199690402476,200.0
931,58.70259287925696,200.0
932,57.56095201238389,200.0
933,57.6625386996904,200.0
934,62.64512383900929,200.0
935,61.81308049535604,200.0
936,61.25677244582043,200.0
937,55.36958204334365,200.0
938,59.09926470588235,200.0
939,61.484133126934985,200.0
940,57.05301857585138,200.0
941,58.77515479876161,200.0
942,60.250580495356026,200.0
943,59.37500000000001,200.0
944,62.872484520123834,200.0
945,59.96033281733746,200.0
946,57.57062693498452,200.0
947,60.41505417956655,200.0
948,56.16776315789473,200.0
949,60.047407120743046,200.0
950,59.34597523219814,200.0
951,58.19949690402478,200.0
952,55.45665634674922,200.0
953,55.9404024767802,200.0
954,57.18363003095975,200.0
955,59.48626160990712,200.0
956,55.26315789473684,200.0
957,59.98935758513932,200.0
958,64.1640866873065,200.0
959,60.361842105263165,200.0
960,60.44891640866872,200.0
961,59.437886996904034,200.0
962,56.36126160990711,200.0
963,59.86358359133127,200.0
964,59.15731424148606,200.0
965,60.03773219814241,200.0
966,60.66660216718266,200.0
967,59.316950464396285,200.0
968,59.8780959752322,200.0
969,59.54431114551084,200.0
970,58.98316563467491,200.0
971,59.166989164086694,200.0
972,58.24787151702785,200.0
973,58.99284055727554,200.0
974,56.3999613003096,200.0
975,57.77380030959752,200.0
976,56.70472136222911,200.0
977,58.20917182662539,200.0
978,55.272832817337466,200.0
979,60.55050309597523,200.0
980,58.60584365325077,200.0
981,59.297600619195045,200.0
982,60.40054179566564,200.0
983,57.120743034055735,200.0
984,60.318304953560364,200.0
985,62.56772445820434,200.0
986,61.25677244582043,200.0
987,58.455882352941174,200.0
988,61.37770897832817,200.0
989,60.16350619195047,200.0
990,59.54431114551083,200.0
991,57.39647832817337,200.0
992,58.755804953560364,200.0
993,58.14628482972136,200.0
994,60.01354489164087,200.0
995,61.542182662538686,200.0
996,56.68537151702787,200.0
997,58.891253869969034,200.0
998,58.422020123839005,200.0
999,59.81037151702786,200.0
1000,60.30379256965945,200.0
1001,58.15112229102168,200.0
1002,59.3798374613003,200.0
1003,58.2140092879257,200.0
1004,61.34868421052632,200.0
1005,57.76412538699691,200.0
1006,58.58165634674922,200.0
1007,56.63215944272446,200.0
1008,63.89802631578947,200.0
1009,55.99361455108359,200.0
1010,54.72136222910217,200.0
1011,59.46691176470588,200.0
1012,57.280379256965944,200.0
1013,57.69156346749226,200.0
1014,58.828366873065015,200.0
1015,57.633513931888544,200.0
1016,56.095201238390096,200.0
1017,58.509094427244584,200.0
1018,57.19814241486068,200.0
1019,59.22987616099071,200.0
1020,58.04469814241485,200.0
1021,59.36048761609908,200.0
1022,57.28521671826624,200.0
1023,57.37712848297214,200.0
1024,57.94794891640867,200.0
1025,59.04605263157895,200.0
1026,58.68808049535603,200.0
1027,61.517995356037154,200.0
1028,59.99419504643963,200.0
1029,61.44059597523219,200.0
1030,59.40886222910216,200.0
1031,55.97426470588235,200.0
1032,59.51044891640867,200.0
1033,61.904992260061924,200.0
1034,57.7109133126935,200.0
1035,60.82140092879256,200.0
1036,60.83107585139319,200.0
1037,58.50909442724459,200.0
1038,56.56443498452011,200.0
1039,54.55688854489165,200.0
1040,56.9078947368421,200.0
1041,59.18633900928793,200.0
1042,58.015673374612994,200.0
1043,57.067530959752325,200.0
1044,60.72948916408668,200.0
1045,58.015673374612994,200.0
1046,55.742066563467496,200.0
1047,59.466911764705884,200.0
1048,58.44136996904025,200.0
1049,61.16002321981424,200.0
1050,57.94311145510836,200.0
1051,56.33223684210526,200.0
1052,57.77380030959752,200.0
1053,59.57333591331269,200.0
1054,58.57681888544892,200.0
1055,60.850425696594435,200.0
1056,58.28173374613003,200.0
1057,61.19388544891641,200.0
1058,57.159442724458195,200.0
1059,61.17453560371517,200.0
1060,57.9140866873065,200.0
1061,57.95278637770899,200.0
1062,57.88506191950464,200.0
1063,58.320433436532504,200.0
1064,58.581656346749234,200.0
1065,56.71923374613002,200.0
1066,63.34171826625387,200.0
1067,59.166989164086694,200.0
1068,58.72194272445821,200.0
1069,60.00386996904025,200.0
1070,56.49671052631579,200.0
1071,61.08262383900929,200.0
1072,59.03637770897833,200.0
1073,60.003869969040245,200.0
1074,59.824883900928796,200.0
1075,58.40267027863778,200.0
1076,58.170472136222905,200.0
1077,59.849071207430335,200.0
1078,60.357004643962846,200.0
1079,59.539473684210535,200.0
1080,57.60448916408669,200.0
1081,57.20781733746131,200.0
1082,60.932662538699695,200.0
1083,59.58784829721362,200.0
1084,55.471168730650156,200.0
1085,63.58359133126935,200.0
1086,56.656346749226,200.0
1087,56.6031346749226,200.0
1088,59.350812693498455,200.0
1089,59.30727554179566,200.0
1090,59.936145510835914,200.0
1091,58.02534829721362,200.0
1092,60.652089783281724,200.0
1093,60.09094427244583,200.0
1094,57.61900154798762,200.0
1095,59.399187306501545,200.0
1096,58.19949690402476,200.0
1097,59.23955108359133,200.0
1098,57.88989938080494,200.0
1099,59.41853715170278,200.0
1100,54.295665634674926,200.0
1101,58.08339783281733,200.0
1102,60.23123065015481,200.0
1103,59.72329721362229,200.0
1104,60.21188080495356,200.0
1105,59.99419504643963,200.0
1106,59.88777089783281,200.0
1107,54.237616099071204,200.0
1108,54.40692724458205,200.0
1109,62.296826625386984,200.0
1110,56.191950464396285,200.0
1111,58.122097523219814,200.0
1112,59.4765866873065,200.0
1113,55.63564241486068,200.0
1114,59.91195820433436,200.0
1115,57.68672600619195,200.0
1116,60.95684984520124,200.0
1117,55.437306501547994,200.0
1118,62.00174148606811,200.0
1119,59.78618421052631,200.0
1120,55.75657894736842,200.0
1121,59.91679566563467,200.0
1122,62.98858359133128,200.0
1123,61.566369969040245,200.0
1124,60.75367647058823,200.0
1125,58.96865325077399,200.0
1126,59.907120743034056,200.0
1127,59.916795665634666,200.0
1128,58.93962848297215,200.0
1129,58.0108359133127,200.0
1130,55.83397832817337,200.0
1131,62.01141640866872,200.0
1132,57.410990712074295,200.0
1133,57.95762383900928,200.0
1134,55.13254643962848,200.0
1135,58.238196594427244,200.0
1136,59.09442724458204,200.0
1137,58.867066563467496,200.0
1138,60.008707430340564,200.0
1139,60.96168730650156,200.0
1140,56.680534055727556,200.0
1141,59.196013931888544,200.0
1142,61.01973684210527,200.0
1143,55.350232198142415,200.0
1144,56.77244582043343,200.0
1145,60.16350619195047,200.0
1146,57.75445046439628,200.0
1147,55.67434210526316,200.0
1148,61.65828173374613,200.0
1149,53.7780572755418,200.0
1150,58.576818885448915,200.0
1151,56.33707430340558,200.0
1152,57.130417956656345,200.0
1153,59.51044891640867,200.0
1154,57.43034055727554,200.0
1155,56.48219814241485,200.0
1156,59.56366099071208,200.0
1157,59.674922600619205,200.0
1158,57.90441176470588,200.0
1159,58.33494582043343,200.0
1160,56.23065015479876,200.0
1161,60.7875386996904,200.0
1162,59.06056501547988,200.0
1163,58.102747678018574,200.0
1164,57.52708978328173,200.0
1165,58.48974458204334,200.0
1166,58.16563467492261,200.0
1167,57.92859907120743,200.0
1168,58.6203560371517,200.0
1169,59.54431114551084,200.0
1170,57.80766253869968,200.0
1171,55.877515479876166,200.0
1172,57.90441176470588,200.0
1173,59.91195820433436,200.0
1174,59.32662538699691,200.0
1175,54.49883900928793,200.0
1176,58.16563467492261,200.0
1177,56.999806501547994,200.0
1178,57.8125,200.0
1179,57.46904024767801,200.0
1180,62.91118421052631,200.0
1181,61.15518575851392,200.0
1182,59.6749226006192,200.0
1183,57.12074303405572,200.0
1184,60.119969040247675,200.0
1185,61.184210526315795,200.0
1186,58.25270897832817,200.0
1187,56.08068885448916,200.0
1188,60.5359907120743,200.0
1189,60.81172600619193,200.0
1190,58.10758513931888,200.0
1191,58.8719040247678,200.0
1192,57.15460526315789,200.0
1193,56.82082043343652,200.0
1194,58.17530959752322,200.0
1195,59.02670278637771,200.0
1196,58.0059984520124,200.0
1197,59.718459752321984,200.0
1198,58.66389318885449,200.0
1199,57.38680340557275,200.0
1200,60.6424148606811,200.0
1201,55.99361455108359,200.0
1202,59.66041021671827,200.0
1203,57.32391640866873,200.0
1204,57.67705108359132,200.0
1205,55.4421439628483,200.0
1206,57.55127708978328,200.0
1207,62.06462848297213,200.0
1208,62.5,200.0
1209,57.52225232198142,200.0
1210,58.789667182662534,200.0
1211,54.21826625386997,200.0
1212,57.94311145510836,200.0
1213,61.2906346749226,200.0
1214,60.598877708978335,200.0
1215,57.30456656346749,200.0
1216,60.003869969040245,200.0
1217,58.69775541795666,200.0
1218,63.235294117647044,200.0
1219,58.65905572755418,200.0
1220,58.85739164086687,200.0
1221,57.246517027863774,200.0
1222,56.13390092879257,200.0
1223,56.39512383900929,200.0
1224,62.31617647058823,200.0
1225,58.16563467492261,200.0
1226,63.15305727554179,200.0
1227,58.422020123839005,200.0
1228,57.37229102167184,200.0
1229,62.31133900928793,200.0
1230,56.08068885448917,200.0
1231,61.851780185758514,200.0
1232,59.15731424148606,200.0
1233,57.5077399380805,200.0
1234,60.04256965944272,200.0
1235,55.13254643962848,200.0
1236,60.11513157894736,200.0
1237,58.32043343653251,200.0
1238,62.678986068111456,200.0
1239,57.425503095975216,200.0
1240,55.97426470588236,200.0
1241,57.62383900928792,200.0
1242,53.13467492260062,200.0
1243,56.40479876160992,200.0
1244,56.77728328173375,200.0
1245,61.72600619195047,200.0
1246,61.276122291021665,200.0
1247,56.56443498452012,200.0
1248,62.47581269349844,200.0
1249,56.3999613003096,200.0
1250,62.76122291021673,200.0
1251,56.64183436532507,200.0
1252,55.26315789473684,200.0
1253,62.17105263157896,200.0
1254,62.06462848297213,200.0
1255,60.62306501547988,200.0
1256,60.545665634674926,200.0
1257,57.32391640866872,200.0
1258,58.21400928792569,200.0
1259,60.39086687306502,200.0
1260,58.34945820433436,200.0
1261,58.2672213622291,200.0
1262,57.5077399380805,200.0
1263,60.65692724458205,200.0
1264,59.72329721362229,200.0
1265,60.50212848297213,200.0
1266,59.22987616099072,200.0
1267,57.619001547987615,200.0
1268,55.57759287925697,200.0
1269,55.51954334365325,200.0
1270,61.580882352941174,200.0
1271,60.66660216718266,200.0
1272,62.891834365325074,200.0
1273,63.22078173374613,200.0
1274,55.471168730650156,200.0
1275,55.90170278637771,200.0
1276,57.54160216718266,200.0
1277,57.362616099071204,200.0
1278,57.96729876160991,200.0
1279,58.29624613003095,200.0
1280,61.91466718266255,200.0
1281,59.15731424148606,200.0
1282,58.66873065015481,200.0
1283,62.71284829721361,200.0
1284,55.21962074303405,200.0
1285,59.549148606811144,200.0
1286,60.01354489164087,200.0
1287,58.97349071207431,200.0
1288,57.66253869969041,200.0
1289,63.35623065015481,200.0
1290,58.12693498452012,200.0
1291,59.771671826625386,200.0
1292,65.02515479876162,200.0
1293,57.807662538699695,200.0
1294,59.02670278637771,200.0
1295,63.032120743034056,200.0
1296,59.37499999999999,200.0
1297,58.654218266253864,200.0
1298,55.52921826625386,200.0
1299,60.845588235294116,200.0
1300,60.37635448916409,200.0
1301,55.99845201238389,200.0
1302,61.20839783281734,200.0
1303,62.35971362229102,200.0
1304,56.37577399380805,200.0
1305,58.90576625386997,200.0
1306,60.77786377708978,200.0
1307,59.91195820433436,200.0
1308,55.91621517027864,200.0
1309,54.813273993808046,200.0
1310,58.45104489164086,200.0
1311,54.77457430340557,200.0
1312,56.06617647058823,200.0
1313,57.8173374613003,200.0
1314,53.87964396284829,200.0
1315,58.01083591331269,200.0
1316,58.45588235294118,200.0
1317,61.10197368421053,200.0
1318,57.73510061919505,200.0
1319,57.551277089783284,200.0
1320,55.47600619195046,200.0
1321,61.33417182662539,200.0
1322,59.718459752321984,200.0
1323,60.11513157894736,200.0
1324,60.545665634674926,200.0
1325,58.8235294117647,200.0
1326,56.02747678018576,200.0
1327,59.7765092879257,200.0
1328,57.41099071207431,200.0
1329,57.78831269349844,200.0
1330,59.22020123839008,200.0
1331,60.627902476780186,200.0
1332,59.64106037151703,200.0
1333,54.03444272445821,200.0
1334,57.89473684210526,200.0
1335,57.551277089783284,200.0
1336,58.04953560371517,200.0
1337,57.527089783281724,200.0
1338,55.11319659442725,200.0
1339,59.79102167182663,200.0
1340,59.92163312693498,200.0
1341,60.961687306501545,200.0
1342,60.26993034055728,200.0
1343,57.30456656346749,200.0
1344,58.925116099071204,200.0
1345,59.35565015479875,200.0
1346,60.16834365325078,200.0
1347,55.877515479876166,200.0
1348,57.66737616099071,200.0
1349,58.625193498452006,200.0
1350,53.797407120743046,200.0
1351,56.14357585139319,200.0
1352,56.48219814241486,200.0
1353,55.5969427244582,200.0
1354,57.07720588235294,200.0
1355,56.845007739938076,200.0
1356,60.642414860681114,200.0
1357,57.1062306501548,200.0
1358,60.274767801857585,200.0
1359,57.04818111455109,200.0
1360,60.245743034055735,200.0
1361,60.3860294117647,200.0
1362,57.03850619195046,200.0
1363,57.97213622291022,200.0
1364,59.80069659442724,200.0
1365,59.65073529411764,200.0
1366,60.25541795665634,200.0
1367,56.593459752321984,200.0
1368,59.4282120743034,200.0
1369,61.61958204334366,200.0
1370,58.847716718266255,200.0
1371,57.33359133126935,200.0
1372,57.30456656346749,200.0
1373,55.089009287925705,200.0
1374,58.944465944272444,200.0
1375,58.34462074303405,200.0
1376,62.050116099071204,200.0
1377,58.91544117647058,200.0
1378,57.45936532507739,200.0
1379,58.102747678018574,200.0
1380,58.93479102167182,200.0
1381,59.099264705882355,200.0
1382,57.31424148606811,200.0
1383,58.18014705882352,200.0
1384,58.43653250773993,200.0
1385,55.50986842105264,200.0
1386,57.251354489164086,200.0
1387,59.84907120743034,200.0
1388,58.85739164086687,200.0
1389,58.48490712074303,200.0
1390,58.11726006191951,200.0
1391,58.59133126934984,200.0
1392,60.19736842105263,200.0
1393,57.13525541795665,200.0
1394,57.94311145510836,200.0
1395,58.32527089783282,200.0
1396,58.997678018575854,200.0
1397,59.31211300309597,200.0
1398,60.45375386996904,200.0
1399,61.82759287925696,200.0
1400,62.824109907120736,200.0
1401,61.07294891640868,200.0
1402,57.096555727554176,200.0
1403,60.618227554179555,200.0
1404,56.932082043343655,200.0
1405,58.9202786377709,200.0
1406,61.68246904024768,200.0
1407,56.14841331269349,200.0
1408,55.22929566563468,200.0
1409,59.2250386996904,200.0
1410,58.55746904024767,200.0
1411,55.05030959752321,200.0
1412,57.09171826625387,200.0
1413,61.53250773993809,200.0
1414,59.85390866873065,200.0
1415,56.26451238390093,200.0
1416,58.08339783281734,200.0
1417,60.294117647058826,200.0
1418,62.441950464396285,200.0
1419,54.85681114551083,200.0
1420,56.046826625387,200.0
1421,56.903057275541805,200.0
1422,63.080495356037154,200.0
1423,59.46207430340558,200.0
1424,56.97078173374613,200.0
1425,55.94523993808049,200.0
1426,58.19949690402477,200.0
1427,57.55611455108359,200.0
1428,56.48219814241485,200.0
1429,55.10835913312693,200.0
1430,59.91195820433437,200.0
1431,58.55263157894736,200.0
1432,54.556888544891635,200.0
1433,57.1062306501548,200.0
1434,59.01702786377709,200.0
1435,58.746130030959755,200.0
1436,55.84365325077399,200.0
1437,58.8235294117647,200.0
1438,59.55398606811146,200.0
1439,61.948529411764696,200.0
1440,57.856037151702786,200.0
1441,57.26102941176471,200.0
1442,60.20704334365326,200.0
1443,59.29760061919505,200.0
1444,57.17879256965944,200.0
1445,59.39434984520124,200.0
1446,56.17743808049535,200.0
1447,57.46904024767801,200.0
1448,56.23548761609907,200.0
1449,58.91060371517027,200.0
1450,60.90363777089783,200.0
1451,54.68266253869969,200.0
1452,55.87751547987616,200.0
1453,57.48839009287926,200.0
1454,60.16350619195046,200.0
1455,61.64376934984519,200.0
1456,58.39299535603715,200.0
1457,57.53192724458205,200.0
1458,57.4593653250774,200.0
1459,60.77302631578947,200.0
1460,57.62867647058823,200.0
1461,56.72407120743034,200.0
1462,58.949303405572756,200.0
1463,58.010835913312704,200.0
1464,60.932662538699695,200.0
1465,56.12906346749225,200.0
1466,58.968653250774,200.0
1467,57.865712074303396,200.0
1468,58.07856037151702,200.0
1469,55.359907120743024,200.0
1470,56.57410990712075,200.0
1471,54.54237616099071,200.0
1472,60.76335139318886,200.0
1473,57.58997678018576,200.0
1474,58.1124226006192,200.0
1475,56.61280959752322,200.0
1476,57.37229102167183,200.0
1477,57.299729102167184,200.0
1478,61.469620743034056,200.0
1479,57.6141640866873,200.0
1480,60.42956656346749,200.0
1481,60.46342879256966,200.0
1482,58.53811919504644,200.0
1483,58.13660990712074,200.0
1484,57.87054953560372,200.0
1485,60.48277863777089,200.0
1486,56.50154798761611,200.0
1487,58.25754643962848,200.0
1488,59.72329721362229,200.0
1489,56.79663312693498,200.0
1490,62.61609907120743,200.0
1491,57.86087461300309,200.0
1492,56.09036377708978,200.0
1493,60.27960526315789,200.0
1494,58.48490712074303,200.0
1495,59.88777089783281,200.0
1496,57.30456656346749,200.0
1497,57.89473684210526,200.0
1498,53.468459752321984,200.0
1499,58.30108359133127,200.0
1500,59.761996904024755,200.0
1501,60.07159442724459,200.0
1502,57.80766253869969,200.0
1503,62.156540247678016,200.0
1504,56.68537151702786,200.0
1505,60.405379256965944,200.0
1506,59.91679566563467,200.0
1507,59.287925696594435,200.0
1508,61.513157894736835,200.0
1509,59.974845201238395,200.0
1510,62.2436145510836,200.0
1511,61.50832043343653,200.0
1512,57.90924922600618,200.0
1513,61.25193498452012,200.0
1514,60.14415634674923,200.0
1515,55.86300309597523,200.0
1516,57.19814241486068,200.0
1517,61.43092105263157,200.0
1518,60.51180340557274,200.0
1519,63.095007739938076,200.0
1520,55.500193498452006,200.0
1521,55.945239938080505,200.0
1522,55.940402476780186,200.0
1523,58.47523219814241,200.0
1524,58.620356037151694,200.0
1525,60.26025541795666,200.0
1526,55.61145510835914,200.0
1527,60.54082817337461,200.0
1528,57.03850619195047,200.0
1529,60.12480650154799,200.0
1530,58.33010835913311,200.0
1531,58.79934210526316,200.0
1532,55.132546439628484,200.0
1533,60.419891640866865,200.0
1534,54.35371517027863,200.0
1535,55.96942724458204,200.0
1536,59.28792569659442,200.0
1537,59.32178792569659,200.0
1538,56.815982972136226,200.0
1539,56.62732198142415,200.0
1540,59.90228328173375,200.0
1541,54.890673374613,200.0
1542,55.742066563467496,200.0
1543,57.68672600619194,200.0
1544,56.511222910216716,200.0
1545,55.37441950464395,200.0
1546,57.812499999999986,200.0
1547,57.62383900928792,200.0
1548,58.73645510835913,200.0
1549,58.9734907120743,200.0
1550,57.03366873065016,200.0
1551,58.06888544891641,200.0
1552,56.51122291021672,200.0
1553,58.04469814241486,200.0
1554,60.531153250774,200.0
1555,57.97697368421053,200.0
1556,55.59210526315789,200.0
1557,58.581656346749234,200.0
1558,55.86300309597522,200.0
1559,59.926470588235304,200.0
1560,60.086106811145505,200.0
1561,57.66737616099072,200.0
1562,61.57120743034055,200.0
1563,57.536764705882355,200.0
1564,62.56772445820434,200.0
1565,56.951431888544896,200.0
1566,57.43034055727554,200.0
1567,61.803405572755416,200.0
1568,63.80127708978327,200.0
1569,57.773800309597526,200.0
1570,55.93556501547988,200.0
1571,57.183630030959755,200.0
1572,55.959752321981426,200.0
1573,57.38680340557276,200.0
1574,55.76625386996904,200.0
1575,61.9485294117647,200.0
1576,53.42976006191951,200.0
1577,57.38680340557276,200.0
1578,56.927244582043336,200.0
1579,56.51606037151702,200.0
1580,60.63757739938081,200.0
1581,58.68324303405572,200.0
1582,60.76818885448917,200.0
1583,60.51664086687306,200.0
1584,56.927244582043336,200.0
1585,56.52573529411764,200.0
1586,60.327979876160995,200.0
1587,57.72542569659442,200.0
1588,61.02457430340558,200.0
1589,61.44543343653251,200.0
1590,57.657701238390096,200.0
1591,57.70607585139319,200.0
1592,62.204914860681114,200.0
1593,54.86648606811145,200.0
1594,54.07797987616099,200.0
1595,56.64183436532508,200.0
1596,58.562306501547994,200.0
1597,59.587848297213625,200.0
1598,60.19736842105264,200.0
1599,53.91350619195047,200.0
1600,57.991486068111456,200.0
1601,54.392414860681114,200.0
1602,58.20433436532507,200.0
1603,60.47794117647059,200.0
1604,58.475232198142415,200.0
1605,60.80205108359134,200.0
1606,57.1062306501548,200.0
1607,62.58223684210527,200.0
1608,55.771091331269346,200.0
1609,57.93827399380805,200.0
1610,59.11377708978328,200.0
1611,54.55688854489164,200.0
1612,61.900154798761605,200.0
1613,60.221555727554176,200.0
1614,60.14899380804953,200.0
1615,56.994969040247675,200.0
1616,55.85332817337461,200.0
1617,52.82991486068111,200.0
1618,60.2312306501548,200.0
1619,58.33978328173375,200.0
1620,60.3328173374613,200.0
1621,59.01702786377707,200.0
1622,60.221555727554176,200.0
1623,57.115905572755416,200.0
1624,59.33146284829721,200.0
1625,56.516060371517035,200.0
1626,58.68324303405572,200.0
1627,59.481424148606806,200.0
1628,58.27689628482972,200.0
1629,55.959752321981426,200.0
1630,57.551277089783284,200.0
1631,61.17937306501549,200.0
1632,57.66737616099071,200.0
1633,60.97136222910217,200.0
1634,57.17879256965944,200.0
1635,64.0238003095975,200.0
1636,55.804953560371516,200.0
1637,55.79044117647059,200.0
1638,58.06888544891642,200.0
1639,55.505030959752325,200.0
1640,57.17395510835914,200.0
1641,56.912732198142415,200.0
1642,58.54779411764706,200.0
1643,59.15247678018575,200.0
1644,58.67356811145512,200.0
1645,59.93130804953561,200.0
1646,56.80147058823529,200.0
1647,61.26644736842104,200.0
1648,56.395123839009294,200.0
1649,60.86493808049536,200.0
1650,58.359133126934985,200.0
1651,56.39028637770897,200.0
1652,60.531153250774,200.0
1653,61.68246904024768,200.0
1654,55.99361455108358,200.0
1655,56.912732198142415,200.0
1656,58.073722910216716,200.0
1657,53.71517027863777,200.0
1658,58.896091331269346,200.0
1659,61.31965944272445,200.0
1660,58.310758513931894,200.0
1661,57.70607585139319,200.0
1662,55.514705882352935,200.0
1663,56.404798761609904,200.0
1664,60.83107585139319,200.0
1665,58.09307275541796,200.0
1666,56.49187306501547,200.0
1667,60.74883900928793,200.0
1668,58.80417956656347,200.0
1669,56.351586687306494,200.0
1670,61.07778637770898,200.0
1671,60.86010061919504,200.0
1672,60.16834365325078,200.0
1673,59.49593653250774,200.0
1674,58.71710526315789,200.0
1675,61.25677244582043,200.0
1676,59.515286377708975,200.0
1677,58.93479102167183,200.0
1678,56.36609907120743,200.0
1679,58.775154798761605,200.0
1680,55.243808049535595,200.0
1681,59.09442724458204,200.0
1682,57.14976780185759,200.0
1683,61.6486068111455,200.0
1684,60.057082043343655,200.0
1685,53.95220588235294,200.0
1686,56.762770897832816,200.0
1687,55.93072755417957,200.0
1688,60.34732972136223,200.0
1689,60.298955108359145,200.0
1690,57.60448916408669,200.0
1691,57.570626934984524,200.0
1692,60.34732972136223,200.0
1693,60.8891253869969,200.0
1694,56.327399380804955,200.0
1695,61.46962074303407,200.0
1696,60.77786377708979,200.0
1697,56.690208978328165,200.0
1698,58.19465944272445,200.0
1699,56.52089783281735,200.0
1700,59.38951238390093,200.0
1701,62.54353715170279,200.0
1702,58.30592105263158,200.0
1703,61.532507739938076,200.0
1704,60.47794117647057,200.0
1705,60.381191950464384,200.0
1706,58.7171052631579,200.0
1707,59.81520897832817,200.0
1708,67.53579721362227,200.0
1709,58.37848297213622,200.0
1710,61.72116873065015,200.0
1711,58.42685758513932,200.0
1712,59.22987616099071,200.0
1713,58.71710526315789,200.0
1714,56.41447368421053,200.0
1715,57.440015479876166,200.0
1716,60.63757739938081,200.0
1717,58.86222910216719,200.0
1718,56.39512383900929,200.0
1719,58.45588235294118,200.0
1720,57.19814241486068,200.0
1721,57.32391640866872,200.0
1722,55.66466718266254,200.0
1723,61.934017027863774,200.0
1724,58.18982198142415,200.0
1725,56.9562693498452,200.0
1726,60.17801857585139,200.0
1727,59.98452012383901,200.0
1728,55.471168730650156,200.0
1729,58.94930340557276,200.0
1730,58.175309597523224,200.0
1731,61.551857585139324,200.0
1732,60.60371517027864,200.0
1733,58.69775541795665,200.0
1734,57.77863777089783,200.0
1735,57.69640092879258,200.0
1736,62.17589009287925,200.0
1737,58.175309597523224,200.0
1738,61.68730650154798,200.0
1739,58.509094427244584,200.0
1740,58.13177244582043,200.0
1741,59.166989164086694,200.0
1742,58.79450464396285,200.0
1743,59.31211300309597,200.0
1744,57.79315015479876,200.0
1745,57.096555727554176,200.0
1746,57.77863777089784,200.0
1747,56.75309597523219,200.0
1748,60.43440402476781,200.0
1749,57.82217492260062,200.0
1750,60.671439628482965,200.0
1751,60.023219814241486,200.0
1752,59.133126934984524,200.0
1753,56.77244582043345,200.0
1754,56.86435758513932,200.0
1755,58.10758513931888,200.0
1756,59.53463622291023,200.0
1757,58.5719814241486,200.0
1758,60.55534055727554,200.0
1759,62.67414860681115,200.0
1760,58.330108359133135,200.0
1761,55.843653250774,200.0
1762,57.89957430340558,200.0
1763,56.994969040247675,200.0
1764,55.83397832817338,200.0
1765,56.40963622291022,200.0
1766,57.362616099071204,200.0
1767,56.03231424148607,200.0
1768,58.736455108359145,200.0
1769,64.44465944272446,200.0
1770,57.00948142414861,200.0
1771,61.70665634674923,200.0
1772,56.86435758513932,200.0
1773,58.99284055727554,200.0
1774,58.50425696594427,200.0
1775,58.74129256965945,200.0
1776,56.196787925696604,200.0
1777,62.4516253869969,200.0
1778,57.01431888544891,200.0
1779,56.037151702786375,200.0
1780,60.82140092879257,200.0
1781,56.02747678018575,200.0
1782,57.06753095975232,200.0
1783,60.42956656346749,200.0
1784,59.92647058823528,200.0
1785,58.58165634674922,200.0
1786,57.169117647058826,200.0
1787,61.57604489164087,200.0
1788,57.33359133126935,200.0
1789,58.03502321981424,200.0
1790,55.25348297213622,200.0
1791,55.22445820433436,200.0
1792,54.73103715170278,200.0
1793,58.097910216718276,200.0
1794,60.80205108359134,200.0
1795,63.57391640866871,200.0
1796,55.8484907120743,200.0
1797,54.80359907120743,200.0
1798,55.97426470588235,200.0
1799,58.23819659442725,200.0
1800,59.05572755417956,200.0
1801,59.234713622291025,200.0
1802,59.14763931888545,200.0
1803,53.9280185758514,200.0
1804,55.664667182662534,200.0
1805,58.19949690402478,200.0
1806,60.124806501547994,200.0
1807,59.350812693498455,200.0
1808,59.824883900928796,200.0
1809,55.95491486068112,200.0
1810,60.676277089783284,200.0
1811,58.0640479876161,200.0
1812,57.26586687306502,200.0
1813,54.92453560371517,200.0
1814,55.05030959752322,200.0
1815,57.89473684210526,200.0
1816,58.392995356037154,200.0
1817,61.97271671826626,200.0
1818,58.73645510835913,200.0
1819,59.53463622291021,200.0
1820,57.328753869969034,200.0
1821,62.34036377708979,200.0
1822,55.703366873065015,200.0
1823,56.09520123839009,200.0
1824,60.37635448916408,200.0
1825,58.19465944272446,200.0
1826,56.78212074303405,200.0
1827,59.54914860681114,200.0
1828,61.208397832817326,200.0
1829,60.734326625387,200.0
1830,55.80979102167183,200.0
1831,60.289280185758514,200.0
1832,60.03289473684211,200.0
1833,62.34520123839008,200.0
1834,59.200851393188856,200.0
1835,57.381965944272444,200.0
1836,55.74690402476781,200.0
1837,60.82140092879257,200.0
1838,57.34326625386996,200.0
1839,57.72058823529411,200.0
1840,56.8546826625387,200.0
1841,59.026702786377705,200.0
1842,63.109520123839005,200.0
1843,60.8891253869969,200.0
1844,59.26857585139319,200.0
1845,58.08339783281734,200.0
1846,55.71787925696595,200.0
1847,62.291989164086694,200.0
1848,62.142027863777095,200.0
1849,60.83107585139319,200.0
1850,55.05514705882353,200.0
1851,55.771091331269346,200.0
1852,58.243034055727556,200.0
1853,58.67356811145511,200.0
1854,59.650735294117645,200.0
1855,62.596749226006175,200.0
1856,60.0861068111455,200.0
1857,60.25058049535604,200.0
1858,55.88235294117647,200.0
1859,61.17453560371517,200.0
1860,59.34597523219814,200.0
1861,58.209171826625386,200.0
1862,59.67976006191951,200.0
1863,58.712267801857585,200.0
1864,61.47445820433435,200.0
1865,61.41640866873065,200.0
1866,59.568498452012385,200.0
1867,59.331462848297214,200.0
1868,55.10352167182663,200.0
1869,59.59752321981424,200.0
1870,59.849071207430335,200.0
1871,57.80282507739939,200.0
1872,60.187693498452006,200.0
1873,57.67705108359133,200.0
1874,61.368034055727534,200.0
1875,59.79102167182663,200.0
1876,55.30669504643963,200.0
1877,57.03366873065016,200.0
1878,61.179373065015476,200.0
1879,58.712267801857585,200.0
1880,61.71149380804953,200.0
1881,62.11784055727554,200.0
1882,59.0267027863777,200.0
1883,59.902283281733745,200.0
1884,57.715750773993804,200.0
1885,57.314241486068106,200.0
1886,61.57604489164087,200.0
1887,58.14628482972136,200.0
1888,55.8484907120743,200.0
1889,58.775154798761605,200.0
1890,59.868421052631575,200.0
1891,60.21188080495355,200.0
1892,56.39512383900928,200.0
1893,59.69910990712074,200.0
1894,59.05089009287926,200.0
1895,59.32662538699691,200.0
1896,61.029411764705884,200.0
1897,62.441950464396285,200.0
1898,56.704721362229094,200.0
1899,59.670085139318886,200.0
1900,60.0812693498452,200.0
1901,59.829721362229115,200.0
1902,56.9078947368421,200.0
1903,53.01857585139319,200.0
1904,58.180147058823536,200.0
1905,60.12480650154799,200.0
1906,57.12074303405573,200.0
1907,57.62867647058823,200.0
1908,55.97426470588236,200.0
1909,57.952786377708975,200.0
1910,59.06540247678019,200.0
1911,57.420665634674926,200.0
1912,56.18227554179566,200.0
1913,55.65982972136222,200.0
1914,57.37712848297213,200.0
1915,60.45859133126935,200.0
1916,58.238196594427244,200.0
1917,58.06888544891641,200.0
1918,59.59752321981425,200.0
1919,55.534055727554176,200.0
1920,60.037732198142415,200.0
1921,53.976393188854495,200.0
1922,55.78560371517027,200.0
1923,55.37925696594427,200.0
1924,63.30785603715169,200.0
1925,60.57952786377708,200.0
1926,61.247097523219814,200.0
1927,60.511803405572756,200.0
1928,55.98877708978328,200.0
1929,59.83455882352941,200.0
1930,57.10623065015481,200.0
1931,59.72329721362229,200.0
1932,61.37770897832817,200.0
1933,58.16563467492261,200.0
1934,55.16157120743034,200.0
1935,57.967298761609904,200.0
1936,56.554760061919495,200.0
1937,57.735100619195045,200.0
1938,60.45375386996904,200.0
1939,59.75232198142414,200.0
1940,58.039860681114554,200.0
1941,53.773219814241486,200.0
1942,60.265092879256976,200.0
1943,58.70743034055729,200.0
1944,58.05921052631579,200.0
1945,59.09442724458205,200.0
1946,58.53811919504645,200.0
1947,56.97561919504644,200.0
1948,55.330882352941174,200.0
1949,59.47174922600619,200.0
1950,58.29140866873065,200.0
1951,55.66466718266254,200.0
1952,62.214589783281724,200.0
1953,58.33010835913313,200.0
1954,57.17395510835914,200.0
1955,57.54160216718267,200.0
1956,56.612809597523224,200.0
1957,59.40402476780185,200.0
1958,58.48006965944273,200.0
1959,56.04198916408669,200.0
1960,59.64589783281734,200.0
1961,58.03018575851392,200.0
1962,59.66041021671827,200.0
1963,59.220201238390096,200.0
1964,57.304566563467496,200.0
1965,55.96942724458205,200.0
1966,59.42337461300309,200.0
1967,56.35642414860681,200.0
1968,57.24167956656348,200.0
1969,60.88428792569659,200.0
1970,55.42763157894737,200.0
1971,55.804953560371516,200.0
1972,56.27902476780186,200.0
1973,61.929179566563455,200.0
1974,55.954914860681114,200.0
1975,58.81869195046439,200.0
1976,60.661764705882355,200.0
1977,58.726780185758514,200.0
1978,61.82275541795666,200.0
1979,63.46749226006191,200.0
1980,57.02883126934984,200.0
1981,59.926470588235304,200.0
1982,62.38873839009288,200.0
1983,54.46981424148607,200.0
1984,57.638351393188856,200.0
1985,55.76141640866873,200.0
1986,60.59404024767803,200.0
1987,57.62867647058823,200.0
1988,63.83513931888544,200.0
1989,58.09791021671826,200.0
1990,58.69775541795666,200.0
1991,59.7765092879257,200.0
1992,59.099264705882355,200.0
1993,58.1172600619195,200.0
1994,57.10623065015479,200.0
1995,59.32178792569658,200.0
1996,59.452399380804955,200.0
1997,60.221555727554176,200.0
1998,57.95762383900929,200.0
1999,56.13873839009288,200.0
2000,59.69910990712074,200.0
2001,62.05979102167181,200.0
2002,59.331462848297214,200.0
2003,59.1234520123839,200.0
2004,55.15673374613004,200.0
2005,59.88777089783281,200.0
2006,62.16137770897832,200.0
2007,58.96381578947368,200.0
2008,59.413699690402474,200.0
2009,58.291408668730654,200.0
2010,60.63757739938081,200.0
2011,58.513931888544896,200.0
2012,55.81946594427245,200.0
2013,57.42066563467492,200.0
2014,55.96458978328174,200.0
2015,59.07507739938079,200.0
2016,58.90576625386997,200.0
2017,59.44272445820434,200.0
2018,61.421246130030966,200.0
2019,55.61629256965944,200.0
2020,54.75522445820433,200.0
2021,55.32604489164086,200.0
2022,58.654218266253864,200.0
2023,59.85390866873064,200.0
2024,58.779992260061924,200.0
2025,58.15112229102167,200.0
2026,60.02321981424148,200.0
2027,58.13177244582044,200.0
2028,58.99284055727554,200.0
2029,58.90576625386996,200.0
2030,56.20162538699691,200.0
2031,58.184984520123834,200.0
2032,63.37074303405572,200.0
2033,56.680534055727556,200.0
2034,59.06056501547989,200.0
2035,59.98935758513932,200.0
2036,59.56366099071208,200.0
2037,56.617647058823536,200.0
2038,57.61416408668731,200.0
2039,60.74883900928793,200.0
2040,58.30108359133128,200.0
2041,61.53734520123838,200.0
2042,56.312886996904034,200.0
2043,58.209171826625386,200.0
2044,61.90015479876162,200.0
2045,57.69156346749225,200.0
2046,58.05921052631579,200.0
2047,60.42472910216719,200.0
2048,56.91756965944271,200.0
2049,57.348103715170275,200.0
2050,54.94388544891642,200.0
2051,57.9624613003096,200.0
2052,59.33630030959752,200.0
2053,58.039860681114554,200.0
2054,58.71710526315789,200.0
2055,57.64318885448917,200.0
2056,59.655572755417964,200.0
2057,59.41369969040248,200.0
2058,56.5547600619195,200.0
2059,58.33010835913313,200.0
2060,59.254063467492266,200.0
2061,61.51315789473685,200.0
2062,59.200851393188856,200.0
2063,58.64454334365324,200.0
2064,60.565015479876166,200.0
2065,53.62809597523219,200.0
2066,58.610681114551085,200.0
2067,56.42898606811144,200.0
2068,59.4233746130031,200.0
2069,55.500193498452006,200.0
2070,56.3999613003096,200.0
2071,60.5843653250774,200.0
2072,61.958204334365334,200.0
2073,59.703947368421055,200.0
2074,58.968653250774,200.0
2075,60.289280185758514,200.0
2076,54.87616099071208,200.0
2077,59.553986068111456,200.0
2078,55.14705882352941,200.0
2079,61.61474458204333,200.0
2080,59.45723684210526,200.0
2081,60.927825077399376,200.0
2082,59.54914860681115,200.0
2083,56.77244582043344,200.0
2084,62.53386222910217,200.0
2085,56.10487616099071,200.0
2086,58.20917182662539,200.0
2087,61.91466718266255,200.0
2088,61.67279411764706,200.0
2089,59.72813467492261,200.0
2090,56.49671052631579,200.0
2091,56.00812693498452,200.0
2092,59.68459752321981,200.0
2093,56.206462848297214,200.0
2094,58.57681888544891,200.0
2095,64.81230650154798,200.0
2096,59.07507739938081,200.0
2097,58.325270897832816,200.0
2098,55.567917956656345,200.0
2099,55.722716718266255,200.0
2100,56.50154798761611,200.0
2101,63.35139318885449,200.0
2102,59.379837461300305,200.0
2103,55.90654024767802,200.0
2104,57.565789473684205,200.0
2105,57.14976780185758,200.0
2106,53.69098297213622,200.0
2107,59.486261609907125,200.0
2108,56.98529411764706,200.0
2109,61.00038699690402,200.0
2110,61.06811145510836,200.0
2111,57.33359133126935,200.0
2112,58.79450464396285,200.0
2113,55.7952786377709,200.0
2114,60.24574303405572,200.0
2115,60.51664086687306,200.0
2116,56.22581269349845,200.0
2117,60.76818885448917,200.0
2118,57.63351393188855,200.0
2119,57.6577012383901,200.0
2120,59.07023993808049,200.0
2121,57.469040247678016,200.0
2122,55.72755417956655,200.0
2123,63.27883126934984,200.0
2124,58.09307275541795,200.0
2125,56.68053405572755,200.0
2126,59.849071207430335,200.0
2127,54.697174922600624,200.0
2128,57.42066563467491,200.0
2129,57.386803405572756,200.0
2130,58.76064241486068,200.0
2131,59.51044891640867,200.0
2132,61.46478328173374,200.0
2133,60.71013931888545,200.0
2134,57.72058823529411,200.0
2135,59.17182662538699,200.0
2136,58.576818885448915,200.0
2137,59.02670278637771,200.0
2138,55.78560371517028,200.0
2139,59.44756191950463,200.0
2140,54.924535603715164,200.0
2141,56.78212074303406,200.0
2142,60.44891640866872,200.0
2143,62.833784829721374,200.0
2144,57.067530959752325,200.0
2145,57.75445046439628,200.0
2146,55.76141640866873,200.0
2147,56.79663312693498,200.0
2148,58.48006965944272,200.0
2149,56.946594427244584,200.0
2150,58.252708978328165,200.0
2151,59.85390866873064,200.0
2152,58.48974458204334,200.0
2153,57.0046439628483,200.0
2154,57.80766253869969,200.0
2155,60.898800309597526,200.0
2156,51.74632352941177,200.0
2157,59.24922600619195,200.0
2158,63.40460526315789,200.0
2159,60.36667956656347,200.0
2160,60.21188080495356,200.0
2161,57.773800309597526,200.0
2162,52.950851393188856,200.0
2163,58.45588235294118,200.0
2164,56.845007739938076,200.0
2165,57.08204334365326,200.0
2166,58.35429566563468,200.0
2167,62.741873065015476,200.0
2168,60.64725232198142,200.0
2169,64.08184984520123,200.0
2170,59.046052631578945,200.0
2171,59.824883900928796,200.0
2172,58.70259287925697,200.0
2173,58.867066563467496,200.0
2174,58.920278637770906,200.0
2175,63.985100619195066,200.0
2176,59.60236068111455,200.0
2177,60.023219814241486,200.0
2178,59.67008513931888,200.0
2179,60.26993034055728,200.0
2180,58.422020123839005,200.0
2181,57.0578560371517,200.0
2182,58.562306501547994,200.0
2183,55.437306501547994,200.0
2184,62.785410216718276,200.0
2185,61.25193498452012,200.0
2186,56.8546826625387,200.0
2187,58.688080495356026,200.0
2188,54.914860681114554,200.0
2189,63.54489164086687,200.0
2190,59.29276315789474,200.0
2191,56.511222910216716,200.0
2192,62.42260061919504,200.0
2193,59.350812693498455,200.0
2194,61.92917956656347,200.0
2195,57.39647832817337,200.0
2196,62.678986068111456,200.0
2197,59.31695046439628,200.0
2198,58.015673374613,200.0
2199,58.494582043343655,200.0
2200,62.35971362229102,200.0
2201,55.954914860681114,200.0
2202,57.067530959752325,200.0
2203,58.34945820433436,200.0
2204,58.88641640866872,200.0
2205,56.017801857585134,200.0
2206,57.299729102167184,200.0
2207,54.15054179566563,200.0
2208,55.86784055727554,200.0
2209,59.723297213622295,200.0
2210,57.96246130030959,200.0
2211,58.5187693498452,200.0
2212,57.9140866873065,200.0
2213,57.9624613003096,200.0
2214,55.42763157894736,200.0
2215,61.04392414860681,200.0
2216,58.64454334365326,200.0
2217,57.55611455108358,200.0
2218,60.313467492260045,200.0
2219,59.80069659442725,200.0
2220,57.54160216718267,200.0
2221,62.7563854489164,200.0
2222,60.274767801857585,200.0
2223,57.768962848297214,200.0
2224,61.35835913312694,200.0
2225,56.54992260061919,200.0
2226,62.20007739938081,200.0
2227,56.37577399380806,200.0
2228,57.19814241486068,200.0
2229,60.879450464396285,200.0
2230,59.02186532507739,200.0
2231,59.10410216718267,200.0
2232,54.69717492260062,200.0
2233,58.63486842105263,200.0
2234,53.91350619195046,200.0
2235,57.26586687306501,200.0
2236,65.12674148606811,200.0
2237,59.96033281733746,200.0
2238,58.794504643962846,200.0
2239,62.238777089783284,200.0
2240,57.90441176470588,200.0
2241,61.48413312693498,200.0
2242,57.415828173374614,200.0
2243,63.33204334365323,200.0
2244,58.27205882352941,200.0
2245,61.86145510835913,200.0
2246,61.179373065015476,200.0
2247,62.35487616099071,200.0
2248,58.84287925696594,200.0
2249,61.169698142414866,200.0
2250,58.591331269349844,200.0
2251,57.86087461300309,200.0
2252,62.03076625386996,200.0
2253,59.196013931888544,200.0
2254,61.87113003095974,200.0
2255,60.54566563467491,200.0
2256,56.9078947368421,200.0
2257,59.452399380804955,200.0
2258,60.80688854489164,200.0
2259,58.68324303405573,200.0
2260,60.29895510835913,200.0
2261,59.99903250773993,200.0
2262,60.79237616099071,200.0
2263,55.25348297213621,200.0
2264,58.90576625386996,200.0
2265,55.11803405572755,200.0
2266,60.608552631578945,200.0
2267,62.41776315789473,200.0
2268,54.14570433436533,200.0
2269,54.95839783281734,200.0
2270,53.47813467492261,200.0
2271,58.43653250773993,200.0
2272,59.742647058823536,200.0
2273,56.27902476780186,200.0
2274,59.37016253869969,200.0
2275,59.297600619195045,200.0
2276,60.40054179566564,200.0
2277,63.38525541795666,200.0
2278,58.36880804953561,200.0
2279,58.30108359133127,200.0
2280,59.713622291021665,200.0
2281,59.970007739938076,200.0
2282,57.096555727554176,200.0
2283,57.94311145510836,200.0
2284,56.53541021671827,200.0
2285,59.44756191950463,200.0
2286,59.89744582043344,200.0
2287,56.9078947368421,200.0
2288,58.28173374613004,200.0
2289,59.22987616099071,200.0
2290,60.018382352941174,200.0
2291,57.976973684210535,200.0
2292,58.726780185758514,200.0
2293,56.58862229102167,200.0
2294,57.65770123839009,200.0
2295,57.98181114551084,200.0
2296,58.320433436532504,200.0
2297,56.79663312693498,200.0
2298,57.130417956656345,200.0
2299,56.680534055727556,200.0
2300,56.845007739938076,200.0
2301,58.1124226006192,200.0
2302,60.10545665634675,200.0
2303,57.909249226006196,200.0
2304,60.52147832817338,200.0
2305,59.171826625387,200.0
2306,59.466911764705884,200.0
2307,59.52012383900929,200.0
2308,56.55959752321982,200.0
2309,59.30243808049535,200.0
2310,60.037732198142415,200.0
2311,60.05224458204334,200.0
2312,57.72058823529411,200.0
2313,59.97968266253869,200.0
2314,60.294117647058826,200.0
2315,60.182856037151694,200.0
2316,57.27554179566563,200.0
2317,58.55263157894736,200.0
2318,55.83881578947369,200.0
2319,57.47387770897833,200.0
2320,60.81172600619196,200.0
2321,58.38332043343654,200.0
2322,62.55321207430341,200.0
2323,59.88293343653251,200.0
2324,55.61145510835914,200.0
2325,61.79373065015481,200.0
2326,57.41582817337461,200.0
2327,60.8407507739938,200.0
2328,57.78831269349845,200.0
2329,55.90654024767802,200.0
2330,62.38873839009288,200.0
2331,61.31965944272445,200.0
2332,60.25058049535604,200.0
2333,61.184210526315795,200.0
2334,60.918150154798774,200.0
2335,57.75445046439627,200.0
2336,60.04256965944272,200.0
2337,62.137190402476776,200.0
2338,58.34462074303406,200.0
2339,62.819272445820445,200.0
2340,57.265866873065015,200.0
2341,62.8531346749226,200.0
2342,57.76896284829721,200.0
2343,56.44833591331269,200.0
2344,59.38951238390093,200.0
2345,58.24787151702786,200.0
2346,60.17318111455107,200.0
2347,57.37229102167182,200.0
2348,57.55611455108359,200.0
2349,63.40460526315789,200.0
2350,59.84423374613004,200.0
2351,59.52496130030959,200.0
2352,60.52631578947368,200.0
2353,57.51257739938081,200.0
2354,58.82836687306502,200.0
2355,58.678405572755416,200.0
2356,58.82836687306502,200.0
2357,58.02534829721361,200.0
2358,58.35913312693498,200.0
2359,61.31965944272446,200.0
2360,64.5655959752322,200.0
2361,57.130417956656345,200.0
2362,61.121323529411775,200.0
2363,58.412345201238395,200.0
2364,54.977747678018574,200.0
2365,61.26160990712075,200.0
2366,58.455882352941174,200.0
2367,61.52283281733747,200.0
2368,57.420665634674926,200.0
2369,59.4765866873065,200.0
2370,59.76199690402476,200.0
2371,62.3500386996904,200.0
2372,56.9030572755418,200.0
2373,57.18363003095975,200.0
2374,62.39841331269349,200.0
2375,59.283088235294116,200.0
2376,62.34520123839008,200.0
2377,56.03231424148607,200.0
2378,59.30727554179567,200.0
2379,59.78618421052631,200.0
2380,55.635642414860676,200.0
2381,57.22232972136223,200.0
2382,59.91679566563467,200.0
2383,55.65982972136223,200.0
2384,60.91815015479876,200.0
2385,59.19601393188855,200.0
2386,64.95259287925695,200.0
2387,61.087461300309606,200.0
2388,59.10410216718266,200.0
2389,58.27205882352941,200.0
2390,56.45801083591331,200.0
2391,58.84771671826625,200.0
2392,59.375,200.0
2393,58.53811919504644,200.0
2394,57.73510061919505,200.0
2395,60.78270123839008,200.0
2396,57.483552631578945,200.0
2397,55.384094427244584,200.0
2398,56.97078173374613,200.0
2399,60.80205108359134,200.0
2400,60.8891253869969,200.0
2401,62.06946594427245,200.0
2402,60.44407894736842,200.0
2403,59.70878482972136,200.0
2404,60.11513157894737,200.0
2405,57.43517801857586,200.0
2406,56.91756965944272,200.0
2407,58.0640479876161,200.0
2408,58.62035603715171,200.0
2409,60.71013931888544,200.0
2410,57.15460526315789,200.0
2411,57.06269349845201,200.0
2412,57.604489164086694,200.0
2413,54.4794891640867,200.0
2414,59.33630030959752,200.0
2415,56.77728328173375,200.0
2416,59.35081269349845,200.0
2417,60.92782507739939,200.0
2418,56.37577399380806,200.0
2419,60.13448142414861,200.0
2420,57.3577786377709,200.0
2421,58.610681114551085,200.0
2422,59.84423374613004,200.0
2423,56.73858359133128,200.0
2424,55.50019349845201,200.0
2425,55.766253869969034,200.0
2426,60.56017801857586,200.0
2427,56.82565789473684,200.0
2428,59.15247678018575,200.0
2429,57.70123839009288,200.0
2430,58.997678018575854,200.0
2431,58.422020123839,200.0
2432,60.50696594427244,200.0
2433,61.10681114551083,200.0
2434,59.26857585139319,200.0
2435,62.61126160990713,200.0
2436,58.74129256965944,200.0
2437,55.48568111455109,200.0
2438,60.35700464396285,200.0
2439,54.75522445820434,200.0
2440,62.02109133126935,200.0
2441,57.54160216718266,200.0
2442,59.54431114551083,200.0
2443,60.932662538699695,200.0
2444,57.227167182662534,200.0
2445,61.005224458204324,200.0
2446,56.36609907120743,200.0
2447,61.34868421052631,200.0
2448,56.47252321981424,200.0
2449,57.29005417956657,200.0
2450,55.26799535603715,200.0
2451,57.60448916408669,200.0
2452,59.00735294117648,200.0
2453,58.586493808049525,200.0
2454,54.566563467492266,200.0
2455,59.71362229102168,200.0
2456,62.97890866873065,200.0
2457,53.221749226006196,200.0
2458,60.618227554179555,200.0
2459,58.562306501547994,200.0
2460,56.23065015479875,200.0
2461,54.15054179566563,200.0
2462,55.72271671826625,200.0
2463,57.13525541795666,200.0
2464,57.12074303405573,200.0
2465,57.469040247678016,200.0
2466,56.26934984520125,200.0
2467,61.79373065015479,200.0
2468,59.74264705882353,200.0
2469,60.32314241486068,200.0
2470,56.99013157894737,200.0
2471,57.84636222910216,200.0
2472,61.17453560371517,200.0
2473,59.25406346749225,200.0
2474,56.5015479876161,200.0
2475,60.94717492260061,200.0
2476,58.896091331269346,200.0
2477,58.04953560371517,200.0
2478,59.49109907120743,200.0
2479,59.72329721362229,200.0
2480,55.63564241486068,200.0
2481,61.31482198142414,200.0
2482,61.49380804953559,200.0
2483,56.65150928792569,200.0
2484,61.61474458204336,200.0
2485,60.00386996904025,200.0
2486,60.88428792569659,200.0
2487,56.53057275541796,200.0
2488,60.06675696594427,200.0
2489,57.49806501547989,200.0
2490,60.24574303405572,200.0
2491,59.14280185758514,200.0
2492,58.67356811145511,200.0
2493,59.350812693498455,200.0
2494,58.40750773993808,200.0
2495,60.187693498452006,200.0
2496,58.73645510835913,200.0
2497,57.07236842105263,200.0
2498,57.53192724458204,200.0
2499,62.62577399380805,200.0
2500,58.36397058823529,200.0
2501,55.55824303405573,200.0
2502,56.071013931888544,200.0
2503,58.0108359133127,200.0
2504,59.57333591331269,200.0
2505,56.40479876160991,200.0
2506,58.16563467492261,200.0
2507,56.57410990712075,200.0
2508,59.32662538699691,200.0
2509,54.329527863777095,200.0
2510,59.27341331269349,200.0
2511,63.82546439628484,200.0
2512,58.59616873065016,200.0
2513,57.19814241486067,200.0
2514,58.8235294117647,200.0
2515,60.095781733746136,200.0
2516,55.7952786377709,200.0
2517,60.124806501547994,200.0
2518,56.893382352941174,200.0
2519,58.020510835913306,200.0
2520,55.61145510835914,200.0
2521,58.65905572755418,200.0
2522,58.16563467492259,200.0
2523,63.11919504643962,200.0
2524,55.93556501547988,200.0
2525,59.578173374612994,200.0
2526,58.44620743034055,200.0
2527,61.169698142414866,200.0
2528,59.76683436532508,200.0
2529,58.05437306501548,200.0
2530,57.84152476780185,200.0
2531,59.84423374613003,200.0
2532,57.25135448916407,200.0
2533,58.88157894736842,200.0
2534,57.851199690402474,200.0
2535,55.72755417956655,200.0
2536,58.77999226006192,200.0
2537,62.77089783281734,200.0
2538,58.00599845201239,200.0
2539,57.435178018575854,200.0
2540,59.515286377708975,200.0
2541,61.27128482972136,200.0
2542,57.14009287925697,200.0
2543,58.05921052631578,200.0
2544,59.350812693498455,200.0
2545,57.82217492260062,200.0
2546,60.17801857585139,200.0
2547,57.183630030959755,200.0
2548,58.79450464396285,200.0
2549,62.61609907120744,200.0
2550,58.95414086687306,200.0
2551,58.630030959752325,200.0
2552,61.967879256965944,200.0
2553,62.495162538699695,200.0
2554,58.218846749226,200.0
2555,60.1828560371517,200.0
2556,60.89880030959751,200.0
2557,61.66311919504645,200.0
2558,61.300309597523224,200.0
2559,57.04334365325077,200.0
2560,58.34945820433436,200.0
2561,61.56153250773994,200.0
2562,59.38951238390093,200.0
2563,58.40267027863777,200.0
2564,57.904411764705884,200.0
2565,62.16621517027864,200.0
2566,56.56927244582044,200.0
2567,58.51393188854489,200.0
2568,58.03018575851392,200.0
2569,58.52360681114551,200.0
2570,60.1780185758514,200.0
2571,57.662538699690394,200.0
2572,55.703366873065015,200.0
2573,60.63757739938081,200.0
2574,58.90576625386997,200.0
2575,63.71420278637771,200.0
2576,59.75232198142415,200.0
2577,59.20568885448917,200.0
2578,57.91892414860681,200.0
2579,57.619001547987615,200.0
2580,62.62093653250775,200.0
2581,58.88641640866872,200.0
2582,58.86222910216719,200.0
2583,56.59829721362229,200.0
2584,61.45994582043343,200.0
2585,61.904992260061924,200.0
2586,55.83397832817338,200.0
2587,62.809597523219814,200.0
2588,56.07101393188855,200.0
2589,61.934017027863774,200.0
2590,58.523606811145505,200.0
2591,59.56366099071209,200.0
2592,56.42414860681116,200.0
2593,57.47871517027864,200.0
2594,59.6749226006192,200.0
2595,57.294891640866865,200.0
2596,59.84423374613003,200.0
2597,58.1656346749226,200.0
2598,59.771671826625386,200.0
2599,60.245743034055735,200.0
2600,59.679760061919495,200.0
2601,59.268575851393194,200.0
2602,55.925890092879264,200.0
2603,57.246517027863774,200.0
2604,58.746130030959755,200.0
2605,59.075077399380795,200.0
2606,61.039086687306494,200.0
2607,58.296246130030966,200.0
2608,58.523606811145505,200.0
2609,61.23742260061919,200.0
2610,56.43382352941177,200.0
2611,58.45588235294118,200.0
2612,58.33010835913313,200.0
2613,61.34868421052631,200.0
2614,59.994195046439636,200.0
2615,58.64938080495355,200.0
2616,58.05921052631579,200.0
2617,56.767608359133135,200.0
2618,59.82972136222911,200.0
2619,56.13873839009288,200.0
2620,59.49109907120743,200.0
2621,59.83939628482972,200.0
2622,57.36745356037151,200.0
2623,62.3500386996904,200.0
2624,60.05224458204335,200.0
2625,59.87325851393189,200.0
2626,59.43304953560372,200.0
2627,58.363970588235304,200.0
2628,61.0342492260062,200.0
2629,58.688080495356026,200.0
2630,58.33494582043343,200.0
2631,59.35565015479876,200.0
2632,58.455882352941174,200.0
2633,56.29353715170278,200.0
2634,59.31695046439629,200.0
2635,62.8531346749226,200.0
2636,60.17801857585139,200.0
2637,59.57333591331269,200.0
2638,59.481424148606806,200.0
2639,55.70336687306502,200.0
2640,57.94311145510836,200.0
2641,58.10758513931889,200.0
2642,58.96381578947368,200.0
2643,59.37016253869969,200.0
2644,58.973490712074295,200.0
2645,61.309984520123834,200.0
2646,57.80766253869969,200.0
2647,60.327979876160995,200.0
2648,60.690789473684205,200.0
2649,55.79044117647059,200.0
2650,61.68246904024767,200.0
2651,56.60313467492261,200.0
2652,58.8186919504644,200.0
2653,58.50425696594427,200.0
2654,55.86300309597523,200.0
2655,60.705301857585134,200.0
2656,56.980456656346746,200.0
2657,58.1124226006192,200.0
2658,58.21884674922601,200.0
2659,58.54779411764706,200.0
2660,58.24787151702786,200.0
2661,56.91273219814242,200.0
2662,60.55534055727554,200.0
2663,59.81520897832817,200.0
2664,59.766834365325074,200.0
2665,58.03018575851394,200.0
2666,59.72329721362229,200.0
2667,55.81946594427245,200.0
2668,60.21671826625387,200.0
2669,63.64647832817337,200.0
2670,58.00116099071207,200.0
2671,58.60100619195046,200.0
2672,54.61010061919505,200.0
2673,56.8063080495356,200.0
2674,65.25251547987615,200.0
2675,58.601006191950454,200.0
2676,61.803405572755416,200.0
2677,55.350232198142415,200.0
2678,59.53947368421052,200.0
2679,60.647252321981405,200.0
2680,57.115905572755416,200.0
2681,58.76547987616099,200.0
2682,57.76896284829721,200.0
2683,60.82140092879257,200.0
2684,59.25406346749225,200.0
2685,58.58165634674923,200.0
2686,57.943111455108365,200.0
2687,58.097910216718255,200.0
2688,58.17047213622291,200.0
2689,57.21749226006193,200.0
2690,58.50425696594428,200.0
2691,56.47736068111455,200.0
2692,58.204334365325074,200.0
2693,55.01160990712074,200.0
2694,60.690789473684205,200.0
2695,61.61958204334366,200.0
2696,58.3639705882353,200.0
2697,56.64183436532508,200.0
2698,59.89744582043344,200.0
2699,58.52360681114551,200.0
2700,62.09365325077401,200.0
2701,63.11435758513932,200.0
2702,61.10197368421053,200.0
2703,61.71149380804953,200.0
2704,59.62171052631578,200.0
2705,59.500773993808046,200.0
2706,55.05030959752322,200.0
2707,60.91331269349844,200.0
2708,59.33146284829722,200.0
2709,58.272058823529406,200.0
2710,55.97910216718265,200.0
2711,57.875386996904034,200.0
2712,54.745549535603715,200.0
2713,58.842879256965944,200.0
2714,58.48006965944273,200.0
2715,54.406927244582036,200.0
2716,61.653444272445824,200.0
2717,57.851199690402474,200.0
2718,56.782120743034056,200.0
2719,60.19736842105264,200.0
2720,61.73084365325077,200.0
2721,56.75309597523219,200.0
2722,55.73722910216719,200.0
2723,56.54024767801858,200.0
2724,57.21749226006191,200.0
2725,62.03076625386996,200.0
2726,56.23548761609907,200.0
2727,61.41157120743034,200.0
2728,55.47600619195047,200.0
2729,53.98606811145511,200.0
2730,61.90982972136223,200.0
2731,55.83881578947369,200.0
2732,58.82836687306502,200.0
2733,55.785603715170275,200.0
2734,61.02457430340558,200.0
2735,57.54160216718267,200.0
2736,58.44136996904025,200.0
2737,59.92163312693498,200.0
2738,58.40267027863777,200.0
2739,59.12345201238391,200.0
2740,60.874613003095966,200.0
2741,55.742066563467496,200.0
2742,61.90982972136223,200.0
2743,60.565015479876166,200.0
2744,57.7109133126935,200.0
2745,56.37093653250775,200.0
2746,59.9313080495356,200.0
2747,59.495936532507734,200.0
2748,55.70820433436533,200.0
2749,61.421246130030966,200.0
2750,59.76199690402476,200.0
2751,59.046052631578945,200.0
2752,58.88641640866874,200.0
2753,54.47948916408669,200.0
2754,56.22581269349845,200.0
2755,58.85255417956657,200.0
2756,61.50348297213621,200.0
2757,56.283862229102155,200.0
2758,57.715750773993804,200.0
2759,57.97697368421053,200.0
2760,61.276122291021665,200.0
2761,60.71497678018576,200.0
2762,58.97832817337461,200.0
2763,64.31888544891639,200.0
2764,56.5499226006192,200.0
2765,55.4953560371517,200.0
2766,54.61977554179566,200.0
2767,56.53057275541795,200.0
2768,55.364744582043336,200.0
2769,57.23684210526315,200.0
2770,62.4032507739938,200.0
2771,60.961687306501545,200.0
2772,57.22232972136222,200.0
2773,58.12693498452012,200.0
2774,59.25890092879257,200.0
2775,58.60100619195047,200.0
2776,55.098684210526315,200.0
2777,59.10410216718266,200.0
2778,56.70955882352942,200.0
2779,56.245162538699695,200.0
2780,56.59345975232197,200.0
2781,55.98877708978327,200.0
2782,56.95626934984519,200.0
2783,59.7861842105263,200.0
2784,57.69640092879257,200.0
2785,58.16079721362229,200.0
2786,58.81869195046439,200.0
2787,59.70878482972137,200.0
2788,55.674342105263165,200.0
2789,57.73026315789474,200.0
2790,60.20704334365325,200.0
2791,59.6797600619195,200.0
2792,58.14628482972135,200.0
2793,58.76547987616099,200.0
2794,58.86706656346749,200.0
2795,59.99903250773994,200.0
2796,60.511803405572756,200.0
2797,58.262383900928796,200.0
2798,59.72329721362229,200.0
2799,60.37635448916409,200.0
2800,56.43382352941177,200.0
2801,60.79721362229103,200.0
2802,55.635642414860676,200.0
2803,58.28173374613003,200.0
2804,57.92859907120743,200.0
2805,60.85526315789474,200.0
2806,59.4765866873065,200.0
2807,61.750193498452006,200.0
2808,58.015673374613,200.0
2809,57.14493034055727,200.0
2810,62.4080882352941,200.0
2811,58.00116099071207,200.0
2812,56.869195046439636,200.0
2813,62.93053405572755,200.0
2814,59.433049535603715,200.0
2815,58.1124226006192,200.0
2816,54.79876160990711,200.0
2817,59.33146284829722,200.0
2818,59.99419504643963,200.0
2819,59.01219040247678,200.0
2820,59.62654798761609,200.0
2821,57.12558049535603,200.0
2822,58.475232198142415,200.0
2823,61.90015479876162,200.0
2824,60.81656346749225,200.0
2825,62.620936532507734,200.0
2826,55.21962074303405,200.0
2827,60.255417956656345,200.0
2828,57.768962848297214,200.0
2829,57.70123839009287,200.0
2830,60.70530185758515,200.0
2831,57.575464396284836,200.0
2832,58.00116099071208,200.0
2833,57.59965170278639,200.0
2834,59.65073529411765,200.0
2835,61.05843653250775,200.0
2836,58.53811919504644,200.0
2837,62.678986068111456,200.0
2838,60.642414860681114,200.0
2839,56.4483359133127,200.0
2840,56.8546826625387,200.0
2841,59.97000773993808,200.0
2842,58.61068111455108,200.0
2843,59.46207430340558,200.0
2844,60.43440402476781,200.0
2845,59.30243808049536,200.0
2846,59.04121517027864,200.0
2847,58.678405572755416,200.0
2848,60.187693498452006,200.0
2849,59.18633900928791,200.0
2850,60.49729102167183,200.0
2851,58.33494582043344,200.0
2852,59.70878482972136,200.0
2853,58.98316563467493,200.0
2854,53.47329721362229,200.0
2855,58.663893188854495,200.0
2856,58.55263157894737,200.0
2857,58.775154798761605,200.0
2858,57.67705108359133,200.0
2859,59.442724458204324,200.0
2860,57.101393188854495,200.0
2861,60.88428792569658,200.0
2862,58.22368421052631,200.0
2863,60.77786377708979,200.0
2864,57.3142414860681,200.0
2865,55.59210526315789,200.0
2866,56.008126934984524,200.0
2867,57.93343653250774,200.0
2868,59.205688854489175,200.0
2869,57.08204334365324,200.0
2870,59.297600619195045,200.0
2871,53.59907120743034,200.0
2872,56.119388544891635,200.0
2873,59.11861455108358,200.0
2874,58.68324303405572,200.0
2875,58.29140866873065,200.0
2876,61.20356037151702,200.0
2877,58.79450464396285,200.0
2878,53.807082043343655,200.0
2879,56.97561919504644,200.0
2880,56.93691950464396,200.0
2881,62.127515479876166,200.0
2882,60.574690402476776,200.0
2883,60.855263157894754,200.0
2884,56.87403250773994,200.0
2885,58.204334365325074,200.0
2886,56.3999613003096,200.0
2887,62.78057275541795,200.0
2888,57.512577399380795,200.0
2889,61.987229102167184,200.0
2890,54.614938080495364,200.0
2891,62.224264705882355,200.0
2892,56.09520123839008,200.0
2893,59.331462848297214,200.0
2894,54.11184210526316,200.0
2895,61.624419504643974,200.0
2896,61.450270897832816,200.0
2897,53.971555727554176,200.0
2898,57.686726006191954,200.0
2899,55.538893188854495,200.0
2900,61.28579721362229,200.0
2901,59.88293343653251,200.0
2902,59.07507739938081,200.0
2903,58.43653250773994,200.0
2904,58.23335913312693,200.0
2905,57.31424148606811,200.0
2906,59.215363777089784,200.0
2907,54.93421052631579,200.0
2908,57.391640866873054,200.0
2909,62.04527863777089,200.0
2910,56.58862229102167,200.0
2911,55.97426470588235,200.0
2912,58.209171826625386,200.0
2913,58.03986068111455,200.0
2914,59.29760061919505,200.0
2915,58.359133126934985,200.0
2916,59.49109907120743,200.0
2917,56.225812693498455,200.0
2918,56.61280959752322,200.0
2919,57.12074303405573,200.0
2920,65.69756191950466,200.0
2921,62.97407120743034,200.0
2922,56.08552631578947,200.0
2923,57.73993808049535,200.0
2924,60.72948916408668,200.0
2925,63.02244582043343,200.0
2926,58.54779411764706,200.0
2927,58.14628482972136,200.0
2928,59.29276315789474,200.0
2929,61.38254643962848,200.0
2930,57.02399380804953,200.0
2931,58.18498452012384,200.0
2932,57.933436532507734,200.0
2933,58.876741486068106,200.0
2934,59.91195820433437,200.0
2935,59.38951238390093,200.0
2936,58.15595975232199,200.0
2937,56.92724458204334,200.0
2938,59.52979876160992,200.0
2939,57.938273993808046,200.0
2940,57.11590557275541,200.0
2941,57.61900154798761,200.0
2942,60.879450464396285,200.0
2943,59.52496130030959,200.0
2944,59.534636222910216,200.0
2945,59.602360681114554,200.0
2946,57.6044891640867,200.0
2947,57.440015479876166,200.0
2948,56.37577399380805,200.0
2949,53.79740712074302,200.0
2950,58.54295665634676,200.0
2951,59.142801857585134,200.0
2952,58.59616873065015,200.0
2953,58.06888544891642,200.0
2954,56.23065015479875,200.0
2955,55.35990712074303,200.0
2956,57.96729876160991,200.0
2957,59.02186532507739,200.0
2958,58.47523219814241,200.0
2959,59.23955108359134,200.0
2960,59.54431114551084,200.0
2961,58.62519349845201,200.0
2962,58.073722910216716,200.0
2963,61.14551083591332,200.0
2964,55.36474458204335,200.0
2965,54.498839009287934,200.0
2966,56.86435758513932,200.0
2967,57.28521671826625,200.0
2968,59.22987616099071,200.0
2969,55.587267801857585,200.0
2970,56.56927244582044,200.0
2971,58.842879256965944,200.0
2972,58.83804179566563,200.0
2973,61.36803405572755,200.0
2974,64.24632352941177,200.0
2975,59.50561145510836,200.0
2976,59.24922600619195,200.0
2977,57.22232972136222,200.0
2978,56.24516253869969,200.0
2979,57.807662538699695,200.0
2980,58.325270897832816,200.0
2981,59.37983746130031,200.0
2982,58.54779411764706,200.0
2983,60.50212848297215,200.0
2984,60.46342879256966,200.0
2985,58.09791021671827,200.0
2986,54.47948916408668,200.0
2987,58.40750773993808,200.0
2988,59.607198142414866,200.0
2989,59.33630030959752,200.0
2990,58.80417956656347,200.0
2991,60.79721362229103,200.0
2992,56.31288699690403,200.0
2993,58.625193498452006,200.0
2994,58.01567337461301,200.0
2995,57.40615325077399,200.0
2996,59.48626160990711,200.0
2997,58.24303405572756,200.0
2998,57.7109133126935,200.0
2999,61.15518575851394,200.0
3000,58.90092879256966,200.0
3001,59.35081269349844,200.0
3002,57.21749226006192,200.0
3003,55.88719040247678,200.0
3004,58.60100619195046,200.0
3005,59.82004643962848,200.0
3006,58.94446594427244,200.0
3007,58.126934984520126,200.0
3008,56.70955882352941,200.0
3009,56.153250773993804,200.0
3010,62.00174148606813,200.0
3011,57.164280185758514,200.0
3012,59.2250386996904,200.0
3013,56.46284829721361,200.0
3014,60.34732972136223,200.0
3015,60.45375386996904,200.0
3016,58.576818885448915,200.0
3017,59.60236068111455,200.0
3018,55.90654024767802,200.0
3019,55.99845201238391,200.0
3020,60.71981424148606,200.0
3021,57.13041795665635,200.0
3022,58.4171826625387,200.0
3023,56.245162538699695,200.0
3024,59.01702786377707,200.0
3025,57.74961300309597,200.0
3026,57.38680340557275,200.0
3027,59.28792569659443,200.0
3028,59.413699690402474,200.0
3029,62.80476006191951,200.0
3030,59.05572755417957,200.0
3031,55.86300309597524,200.0
3032,58.102747678018574,200.0
3033,58.14144736842106,200.0
3034,59.03154024767802,200.0
3035,57.817337461300305,200.0
3036,59.52012383900928,200.0
3037,61.6969814241486,200.0
3038,61.218072755417964,200.0
3039,60.1296439628483,200.0
3040,63.09500773993809,200.0
3041,61.38254643962849,200.0
3042,58.27689628482971,200.0
3043,62.04527863777089,200.0
3044,61.59539473684211,200.0
3045,59.2734133126935,200.0
3046,61.09713622291022,200.0
3047,57.68672600619195,200.0
3048,61.885642414860676,200.0
3049,58.96381578947368,200.0
3050,60.16350619195046,200.0
3051,52.559017027863774,200.0
3052,54.96807275541795,200.0
3053,52.5251547987616,200.0
3054,62.4516253869969,200.0
3055,60.294117647058826,200.0
3056,59.28792569659442,200.0
3057,59.51044891640866,200.0
3058,58.17047213622292,200.0
3059,55.62596749226006,200.0
3060,56.840170278637764,200.0
3061,56.2983746130031,200.0
3062,61.26160990712075,200.0
3063,61.40189628482972,200.0
3064,58.28173374613003,200.0
3065,58.944465944272444,200.0
3066,58.96865325077399,200.0
3067,56.27418730650155,200.0
3068,57.17879256965944,200.0
3069,60.61339009287925,200.0
3070,59.37016253869968,200.0
3071,61.77921826625386,200.0
3072,58.34945820433436,200.0
3073,61.6921439628483,200.0
3074,62.64512383900929,200.0
3075,54.677825077399376,200.0
3076,55.10352167182663,200.0
3077,55.872678018575854,200.0
3078,60.3860294117647,200.0
3079,57.904411764705884,200.0
3080,56.66602167182663,200.0
3081,58.59616873065015,200.0
3082,60.39570433436532,200.0
3083,57.04334365325078,200.0
3084,57.386803405572756,200.0
3085,57.79798761609908,200.0
3086,54.677825077399376,200.0
3087,59.76199690402476,200.0
3088,57.39647832817337,200.0
3089,56.80630804953561,200.0
3090,58.160797213622295,200.0
3091,56.73858359133127,200.0
3092,59.186339009287934,200.0
3093,58.07856037151703,200.0
3094,61.33417182662539,200.0
3095,55.621130030959755,200.0
3096,57.97213622291021,200.0
3097,58.68324303405572,200.0
3098,60.55050309597523,200.0
3099,58.76547987616099,200.0
3100,60.04740712074303,200.0
3101,61.663119195046434,200.0
3102,58.77515479876161,200.0
3103,55.945239938080505,200.0
3104,63.10952012383902,200.0
3105,61.06327399380805,200.0
3106,60.395704334365334,200.0
3107,60.294117647058826,200.0
3108,60.68595201238389,200.0
3109,54.861648606811144,200.0
3110,57.73510061919505,200.0
3111,55.24380804953561,200.0
3112,55.417956656346746,200.0
3113,63.59810371517028,200.0
3114,56.38544891640867,200.0
3115,57.246517027863774,200.0
3116,57.498065015479874,200.0
3117,57.79315015479877,200.0
3118,60.3328173374613,200.0
3119,55.72755417956657,200.0
3120,60.07643188854488,200.0
3121,59.42337461300309,200.0
3122,59.873258513931894,200.0
3123,57.69640092879257,200.0
3124,56.15808823529411,200.0
3125,60.99071207430341,200.0
3126,57.20781733746129,200.0
3127,59.74264705882353,200.0
3128,60.34249226006191,200.0
3129,54.847136222910216,200.0
3130,60.55050309597523,200.0
3131,60.47794117647059,200.0
3132,58.27205882352942,200.0
3133,58.8670665634675,200.0
3134,58.05921052631578,200.0
3135,59.51528637770898,200.0
3136,61.56153250773994,200.0
3137,60.26993034055728,200.0
3138,56.946594427244584,200.0
3139,59.39434984520125,200.0
3140,58.76547987616099,200.0
3141,63.26915634674921,200.0
3142,60.990712074303396,200.0
3143,60.24574303405572,200.0
3144,56.830495356037154,200.0
3145,59.85390866873065,200.0
3146,63.93672600619193,200.0
3147,60.086106811145505,200.0
3148,60.00386996904025,200.0
3149,57.69156346749226,200.0
3150,59.22020123839009,200.0
3151,56.48703560371517,200.0
3152,58.33010835913313,200.0
3153,56.16292569659443,200.0
3154,57.99632352941177,200.0
3155,60.50212848297213,200.0
3156,61.4938080495356,200.0
3157,59.07023993808048,200.0
3158,57.483552631578945,200.0
3159,56.211300309597526,200.0
3160,56.77244582043343,200.0
3161,59.00735294117647,200.0
3162,57.49322755417956,200.0
3163,57.0046439628483,200.0
3164,56.699883900928796,200.0
3165,59.26857585139319,200.0
3166,60.35216718266255,200.0
3167,61.06811145510836,200.0
3168,59.20568885448917,200.0
3169,55.74690402476781,200.0
3170,60.371517027863774,200.0
3171,59.089589783281724,200.0
3172,57.19814241486068,200.0
3173,58.63970588235294,200.0
3174,62.42743808049536,200.0
3175,61.856617647058826,200.0
3176,59.28308823529412,200.0
3177,56.3999613003096,200.0
3178,55.80495356037152,200.0
3179,63.29334365325079,200.0
3180,58.44620743034056,200.0
3181,54.96807275541795,200.0
3182,59.85390866873065,200.0
3183,61.26644736842104,200.0
3184,59.49593653250775,200.0
3185,57.115905572755416,200.0
3186,60.187693498452006,200.0
3187,59.39434984520124,200.0
3188,55.65499226006192,200.0
3189,59.568498452012385,200.0
3190,61.38254643962849,200.0
3191,58.83320433436533,200.0
3192,61.28579721362229,200.0
3193,60.2312306501548,200.0
3194,59.2250386996904,200.0
3195,61.43575851393189,200.0
3196,56.00812693498452,200.0
3197,60.66660216718266,200.0
3198,60.12964396284829,200.0
3199,56.79663312693499,200.0
3200,58.77031733746129,200.0
3201,55.398606811145505,200.0
3202,58.30592105263158,200.0
3203,54.44562693498451,200.0
3204,55.95491486068112,200.0
3205,54.73587461300309,200.0
3206,59.19117647058823,200.0
3207,58.073722910216716,200.0
3208,57.21265479876161,200.0
3209,60.976199690402474,200.0
3210,59.29276315789473,200.0
3211,56.777283281733745,200.0
3212,62.31133900928791,200.0
3213,61.63893188854489,200.0
3214,60.550503095975216,200.0
3215,58.03502321981425,200.0
3216,60.14415634674923,200.0
3217,58.494582043343655,200.0
3218,59.200851393188856,200.0
3219,56.67085913312693,200.0
3220,60.23606811145511,200.0
3221,61.37287151702787,200.0
3222,57.74961300309597,200.0
3223,59.268575851393194,200.0
3224,58.5719814241486,200.0
3225,58.809017027863774,200.0
3226,58.91060371517028,200.0
3227,57.6044891640867,200.0
3228,57.57546439628483,200.0
3229,60.48277863777089,200.0
3230,58.40750773993808,200.0
3231,57.03366873065014,200.0
3232,58.00116099071207,200.0
3233,59.98452012383901,200.0
3234,57.0578560371517,200.0
3235,57.89473684210526,200.0
3236,60.44891640866874,200.0
3237,59.82972136222911,200.0
3238,56.06133900928792,200.0
3239,59.00735294117647,200.0
3240,58.07856037151702,200.0
3241,58.659055727554176,200.0
3242,56.26934984520125,200.0
3243,58.12693498452011,200.0
3244,58.3639705882353,200.0
3245,56.73858359133126,200.0
3246,60.724651702786375,200.0
3247,55.93072755417956,200.0
3248,59.29760061919505,200.0
3249,60.01838235294118,200.0
3250,57.58030185758514,200.0
3251,60.90363777089783,200.0
3252,56.9562693498452,200.0
3253,60.545665634674926,200.0
3254,60.97619969040249,200.0
3255,60.44891640866872,200.0
3256,57.68672600619195,200.0
3257,60.45859133126934,200.0
3258,56.70955882352941,200.0
3259,55.83397832817337,200.0
3260,61.22291021671826,200.0
3261,55.77592879256966,200.0
3262,59.87325851393189,200.0
3263,62.17589009287925,200.0
3264,57.115905572755416,200.0
3265,58.6687306501548,200.0
3266,54.784249226006196,200.0
3267,60.071594427244584,200.0
3268,59.5249613003096,200.0
3269,58.94446594427246,200.0
3270,58.31559597523219,200.0
3271,59.11377708978328,200.0
3272,57.32875386996904,200.0
3273,53.183049535603715,200.0
3274,60.94717492260061,200.0
3275,60.43440402476781,200.0
3276,59.23955108359133,200.0
3277,56.50154798761611,200.0
3278,61.6969814241486,200.0
3279,56.085526315789465,200.0
3280,59.30243808049535,200.0
3281,57.58997678018576,200.0
3282,60.0861068111455,200.0
3283,61.96787925696593,200.0
3284,57.512577399380795,200.0
3285,56.777283281733745,200.0
3286,59.66524767801858,200.0
3287,59.62171052631579,200.0
3288,60.927825077399376,200.0
3289,60.91815015479875,200.0
3290,58.07372291021672,200.0
3291,57.3577786377709,200.0
3292,62.16137770897832,200.0
3293,60.24574303405572,200.0
3294,58.93962848297213,200.0
3295,58.75096749226005,200.0
3296,59.16215170278638,200.0
3297,57.01915634674923,200.0
3298,54.71652476780186,200.0
3299,60.49245356037152,200.0
3300,62.49516253869968,200.0
3301,58.73645510835914,200.0
3302,56.35642414860682,200.0
3303,60.531153250774,200.0
3304,62.28715170278639,200.0
3305,60.15866873065015,200.0
3306,58.83804179566564,200.0
3307,58.33494582043343,200.0
3308,62.60642414860681,200.0
3309,59.39918730650155,200.0
3310,57.51257739938081,200.0
3311,61.16486068111455,200.0
3312,58.16563467492261,200.0
3313,61.5421826625387,200.0
3314,58.214009287925684,200.0
3315,56.95143188854489,200.0
3316,60.531153250774,200.0
3317,56.43866099071207,200.0
3318,60.56017801857585,200.0
3319,60.45859133126935,200.0
3320,56.10971362229102,200.0
3321,56.41447368421053,200.0
3322,59.882933436532504,200.0
3323,58.74129256965944,200.0
3324,60.28928018575851,200.0
3325,59.09442724458205,200.0
3326,56.656346749226,200.0
3327,58.659055727554176,200.0
3328,59.268575851393194,200.0
3329,56.351586687306494,200.0
3330,55.621130030959755,200.0
3331,57.265866873065015,200.0
3332,61.98239164086687,200.0
3333,62.291989164086694,200.0
3334,60.12480650154799,200.0
3335,56.2016253869969,200.0
3336,56.43866099071207,200.0
3337,59.84423374613003,200.0
3338,59.515286377708975,200.0
3339,58.52360681114551,200.0
3340,60.59404024767803,200.0
3341,62.95472136222911,200.0
3342,59.4814241486068,200.0
3343,59.58784829721361,200.0
3344,63.28366873065015,200.0
3345,56.65634674922602,200.0
3346,61.672794117647044,200.0
3347,57.362616099071204,200.0
3348,58.296246130030966,200.0
3349,60.8891253869969,200.0
3350,56.699883900928796,200.0
3351,56.38544891640866,200.0
3352,57.754450464396285,200.0
3353,58.2140092879257,200.0
3354,58.79934210526316,200.0
3355,58.38332043343653,200.0
3356,57.96729876160991,200.0
3357,60.255417956656345,200.0
3358,58.87674148606811,200.0
3359,57.51257739938081,200.0
3360,59.162151702786375,200.0
3361,60.01838235294118,200.0
3362,59.98935758513932,200.0
3363,56.09036377708978,200.0
3364,59.950657894736835,200.0
3365,59.66524767801858,200.0
3366,56.3032120743034,200.0
3367,55.9452399380805,200.0
3368,58.86222910216719,200.0
3369,60.82623839009288,200.0
3370,60.3328173374613,200.0
3371,56.893382352941174,200.0
3372,63.7093653250774,200.0
3373,61.67763157894738,200.0
3374,53.64260835913312,200.0
3375,55.70820433436533,200.0
3376,55.73722910216718,200.0
3377,56.617647058823536,200.0
3378,57.943111455108365,200.0
3379,55.60661764705883,200.0
3380,58.397832817337466,200.0
3381,58.42685758513932,200.0
3382,59.786184210526315,200.0
3383,58.813854489164086,200.0
3384,62.258126934984524,200.0
3385,56.16776315789474,200.0
3386,58.625193498452006,200.0
3387,56.67569659442725,200.0
3388,57.84152476780185,200.0
3389,57.580301857585134,200.0
3390,55.8968653250774,200.0
3391,59.012190402476776,200.0
3392,62.5,200.0
3393,58.712267801857585,200.0
3394,59.16215170278638,200.0
3395,61.218072755417964,200.0
3396,59.43788699690403,200.0
3397,57.07236842105263,200.0
3398,59.25406346749226,200.0
3399,57.48355263157894,200.0
3400,60.92782507739939,200.0
3401,60.071594427244584,200.0
3402,59.3701625386997,200.0
3403,56.81598297213622,200.0
3404,57.256191950464384,200.0
3405,58.296246130030966,200.0
3406,61.0294117647059,200.0
3407,58.30108359133127,200.0
3408,56.23065015479876,200.0
3409,59.39918730650154,200.0
3410,58.789667182662534,200.0
3411,58.86706656346749,200.0
3412,60.77786377708978,200.0
3413,59.24922600619195,200.0
3414,58.542956656346746,200.0
3415,61.68246904024766,200.0
3416,59.42337461300309,200.0
3417,59.39918730650155,200.0
3418,60.43924148606811,200.0
3419,59.20568885448916,200.0
3420,59.97000773993809,200.0
3421,57.73510061919505,200.0
3422,59.307275541795676,200.0
3423,58.460719814241486,200.0
3424,59.108939628482965,200.0
3425,58.95414086687307,200.0
3426,60.36667956656347,200.0
3427,56.17743808049536,200.0
3428,58.8670665634675,200.0
3429,57.280379256965944,200.0
3430,56.961106811145505,200.0
3431,62.17589009287925,200.0
3432,60.58920278637771,200.0
3433,57.0046439628483,200.0
3434,59.34597523219814,200.0
3435,54.5859133126935,200.0
3436,56.86919504643963,200.0
3437,59.442724458204324,200.0
3438,54.50851393188855,200.0
3439,57.88022445820434,200.0
3440,57.768962848297214,200.0
3441,60.390866873065015,200.0
3442,55.640479876160995,200.0
3443,57.589976780185765,200.0
3444,54.09732972136223,200.0
3445,58.84287925696594,200.0
3446,59.65557275541795,200.0
3447,56.52573529411764,200.0
3448,58.4703947368421,200.0
3449,58.15595975232198,200.0
3450,61.58088235294119,200.0
3451,57.362616099071204,200.0
3452,58.68324303405573,200.0
3453,58.69775541795666,200.0
3454,60.74883900928793,200.0
3455,55.91621517027864,200.0
3456,56.90789473684211,200.0
3457,58.49941950464397,200.0
3458,59.994195046439636,200.0
3459,57.38680340557275,200.0
3460,58.22852167182663,200.0
3461,57.0046439628483,200.0
3462,58.29140866873064,200.0
3463,60.0861068111455,200.0
3464,56.254837461300305,200.0
3465,60.61339009287925,200.0
3466,59.868421052631575,200.0
3467,60.77302631578947,200.0
3468,59.67008513931889,200.0
3469,60.04740712074304,200.0
3470,56.23548761609908,200.0
3471,63.02728328173375,200.0
3472,59.54914860681114,200.0
3473,57.75928792569659,200.0
3474,59.94582043343654,200.0
3475,59.91679566563467,200.0
3476,58.6687306501548,200.0
3477,58.30592105263158,200.0
3478,56.84500773993808,200.0
3479,56.791795665634666,200.0
3480,54.52302631578947,200.0
3481,58.68808049535603,200.0
3482,57.95762383900929,200.0
3483,63.31753095975233,200.0
3484,61.39705882352941,200.0
3485,58.29624613003095,200.0
3486,58.15112229102166,200.0
3487,61.47445820433436,200.0
3488,58.301083591331285,200.0
3489,59.737809597523224,200.0
3490,59.17666408668731,200.0
3491,60.327979876160995,200.0
3492,59.800696594427244,200.0
3493,58.5671439628483,200.0
3494,60.76818885448917,200.0
3495,58.83804179566563,200.0
3496,57.004643962848306,200.0
3497,60.44407894736842,200.0
3498,55.99361455108358,200.0
3499,60.734326625386984,200.0
3500,56.424148606811144,200.0
3501,58.779992260061924,200.0
3502,61.99206656346749,200.0
3503,60.17801857585139,200.0
3504,58.85255417956656,200.0
3505,56.898219814241486,200.0
3506,56.37093653250773,200.0
3507,59.331462848297214,200.0
3508,58.5236068111455,200.0
3509,59.14763931888546,200.0
3510,58.562306501547994,200.0
3511,58.35429566563467,200.0
3512,61.25193498452012,200.0
3513,59.399187306501545,200.0
3514,61.0874613003096,200.0
3515,59.341137770897824,200.0
3516,54.67298761609907,200.0
3517,59.90228328173374,200.0
3518,58.412345201238395,200.0
3519,59.0750773993808,200.0
3520,58.339783281733745,200.0
3521,61.88080495356038,200.0
3522,61.871130030959755,200.0
3523,56.859520123839005,200.0
3524,56.87403250773994,200.0
3525,56.02747678018576,200.0
3526,59.64106037151703,200.0
3527,57.84636222910217,200.0
3528,57.29005417956655,200.0
3529,55.05998452012384,200.0
3530,56.59345975232198,200.0
3531,59.02186532507739,200.0
3532,59.433049535603715,200.0
3533,58.85255417956656,200.0
3534,57.83184984520124,200.0
3535,57.88506191950465,200.0
3536,57.69640092879256,200.0
3537,58.87674148606811,200.0
3538,59.14280185758514,200.0
3539,59.69910990712075,200.0
3540,59.079914860681114,200.0
3541,58.5719814241486,200.0
3542,59.84423374613002,200.0
3543,56.68537151702787,200.0
3544,56.641834365325074,200.0
3545,57.720588235294116,200.0
3546,55.68401702786378,200.0
3547,59.79585913312694,200.0
3548,57.575464396284836,200.0
3549,54.13602941176471,200.0
3550,55.3937693498452,200.0
3551,56.77244582043344,200.0
3552,57.85119969040247,200.0
3553,58.6203560371517,200.0
3554,61.62925696594428,200.0
3555,59.91679566563468,200.0
3556,57.42066563467493,200.0
3557,57.285216718266255,200.0
3558,56.9611068111455,200.0
3559,60.07643188854489,200.0
3560,61.256772445820445,200.0
3561,61.493808049535616,200.0
3562,58.726780185758514,200.0
3563,60.037732198142415,200.0
3564,59.07991486068111,200.0
3565,53.284636222910216,200.0
3566,58.16563467492261,200.0
3567,59.53463622291022,200.0
3568,55.930727554179555,200.0
3569,58.87674148606811,200.0
3570,61.31965944272446,200.0
3571,56.56927244582043,200.0
3572,59.099264705882355,200.0
3573,57.69640092879257,200.0
3574,61.450270897832816,200.0
3575,59.12828947368421,200.0
3576,59.94098297213623,200.0
3577,57.18363003095975,200.0
3578,58.494582043343655,200.0
3579,58.00599845201239,200.0
3580,54.6875,200.0
3581,58.38815789473685,200.0
3582,57.80282507739938,200.0
3583,59.974845201238395,200.0
3584,58.175309597523224,200.0
3585,57.609326625387,200.0
3586,60.782701238390096,200.0
3587,58.373645510835914,200.0
3588,55.674342105263165,200.0
3589,60.13448142414861,200.0
3590,59.70394736842105,200.0
3591,58.08339783281733,200.0
3592,58.72194272445821,200.0
3593,59.365325077399376,200.0
3594,58.66873065015479,200.0
3595,59.22020123839009,200.0
3596,59.147639318885446,200.0
3597,55.485681114551085,200.0
3598,56.98045665634675,200.0
3599,61.06327399380805,200.0
3600,57.304566563467496,200.0
3601,58.126934984520126,200.0
3602,60.913312693498455,200.0
3603,54.6391253869969,200.0
3604,56.36126160990712,200.0
3605,58.36880804953561,200.0
3606,57.604489164086694,200.0
3607,55.959752321981426,200.0
3608,54.85681114551085,200.0
3609,58.460719814241486,200.0
3610,60.79721362229102,200.0
3611,59.215363777089784,200.0
3612,59.06540247678019,200.0
3613,58.470394736842096,200.0
3614,56.38061145510836,200.0
3615,60.71013931888545,200.0
3616,57.60448916408668,200.0
3617,60.76335139318886,200.0
3618,59.14763931888545,200.0
3619,56.656346749226,200.0
3620,58.775154798761605,200.0
3621,58.363970588235304,200.0
3622,55.55824303405573,200.0
3623,58.34945820433436,200.0
3624,61.16969814241485,200.0
3625,57.12558049535603,200.0
3626,61.16002321981424,200.0
3627,64.83165634674921,200.0
3628,58.10758513931889,200.0
3629,61.57604489164087,200.0
3630,56.37093653250774,200.0
3631,61.24226006191951,200.0
3632,56.965944272445824,200.0
3633,58.28173374613002,200.0
3634,58.634868421052644,200.0
3635,56.23065015479875,200.0
3636,58.339783281733745,200.0
3637,61.68246904024768,200.0
3638,60.284442724458195,200.0
3639,57.04818111455109,200.0
3640,59.04605263157894,200.0
3641,59.17666408668731,200.0
3642,61.827592879256976,200.0
3643,58.32043343653251,200.0
3644,58.06404798761609,200.0
3645,58.74613003095976,200.0
3646,60.347329721362215,200.0
3647,58.54295665634675,200.0
3648,57.90924922600619,200.0
3649,59.58301083591332,200.0
3650,55.485681114551085,200.0
3651,59.46691176470588,200.0
3652,55.96458978328173,200.0
3653,59.04121517027864,200.0
3654,59.25890092879257,200.0
3655,59.29276315789474,200.0
3656,56.22581269349845,200.0
3657,57.739938080495364,200.0
3658,56.83533281733746,200.0
3659,61.61474458204334,200.0
3660,56.81598297213622,200.0
3661,59.616873065015476,200.0
3662,57.83668730650154,200.0
3663,59.331462848297214,200.0
3664,57.033668730650156,200.0
3665,62.025928792569644,200.0
3666,57.328753869969034,200.0
3667,61.996904024767794,200.0
3668,59.786184210526315,200.0
3669,56.24032507739938,200.0
3670,58.33010835913313,200.0
3671,58.62519349845201,200.0
3672,62.99825851393189,200.0
3673,58.42685758513932,200.0
3674,61.64376934984519,200.0
3675,60.19253095975232,200.0
3676,57.42550309597523,200.0
3677,58.349458204334375,200.0
3678,59.08958978328173,200.0
3679,59.433049535603715,200.0
3680,58.65421826625388,200.0
3681,58.30108359133127,200.0
3682,59.09442724458205,200.0
3683,56.743421052631575,200.0
3684,57.94794891640867,200.0
3685,56.724071207430335,200.0
3686,57.62867647058824,200.0
3687,58.07856037151703,200.0
3688,57.64318885448916,200.0
3689,57.39164086687307,200.0
3690,58.373645510835914,200.0
3691,56.990131578947356,200.0
3692,59.60236068111456,200.0
3693,54.77457430340558,200.0
3694,61.440595975232206,200.0
3695,57.56578947368422,200.0
3696,57.48355263157895,200.0
3697,59.3266253869969,200.0
3698,59.29276315789474,200.0
3699,57.98181114551084,200.0
3700,60.076431888544896,200.0
3701,55.67917956656348,200.0
3702,60.14415634674921,200.0
3703,58.21884674922601,200.0
3704,61.750193498452006,200.0
3705,56.52089783281733,200.0
3706,57.164280185758514,200.0
3707,60.095781733746136,200.0
3708,58.25754643962848,200.0
3709,58.58649380804953,200.0
3710,58.15112229102167,200.0
3711,53.59423374613003,200.0
3712,60.49245356037152,200.0
3713,59.26373839009288,200.0
3714,60.221555727554176,200.0
3715,56.965944272445824,200.0
3716,56.39512383900929,200.0
3717,59.36532507739938,200.0
3718,57.077205882352935,200.0
3719,59.752321981424146,200.0
3720,58.218846749226,200.0
3721,56.8063080495356,200.0
3722,63.29334365325077,200.0
3723,61.276122291021665,200.0
3724,58.63970588235294,200.0
3725,59.815208978328165,200.0
3726,53.463622291021665,200.0
3727,57.23200464396285,200.0
3728,60.85526315789474,200.0
3729,52.80089009287926,200.0
3730,58.257546439628484,200.0
3731,58.49941950464396,200.0
3732,57.817337461300305,200.0
3733,55.90654024767802,200.0
3734,58.978328173374614,200.0
3735,58.47039473684211,200.0
3736,60.424729102167184,200.0
3737,57.391640866873054,200.0
3738,60.82623839009287,200.0
3739,61.9436919504644,200.0
3740,61.49864551083592,200.0
3741,57.469040247678016,200.0
3742,62.127515479876166,200.0
3743,56.951431888544896,200.0
3744,57.657701238390096,200.0
3745,58.17530959752322,200.0
3746,59.58301083591331,200.0
3747,56.68537151702786,200.0
3748,58.41718266253869,200.0
3749,59.39434984520123,200.0
3750,60.695626934984524,200.0
3751,56.57410990712076,200.0
3752,58.63970588235294,200.0
3753,56.67085913312694,200.0
3754,58.15112229102167,200.0
3755,58.70743034055727,200.0
3756,57.23200464396285,200.0
3757,56.52089783281734,200.0
3758,62.08881578947369,200.0
3759,58.726780185758514,200.0
3760,56.02747678018576,200.0
3761,61.35352167182662,200.0
3762,60.511803405572756,200.0
3763,56.6515092879257,200.0
3764,59.452399380804955,200.0
3765,57.367453560371516,200.0
3766,57.35777863777089,200.0
3767,61.9485294117647,200.0
3768,61.06811145510836,200.0
3769,58.484907120743024,200.0
3770,58.70743034055728,200.0
3771,57.06269349845201,200.0
3772,60.1780185758514,200.0
3773,59.36048761609908,200.0
3774,57.00464396284829,200.0
3775,55.46149380804953,200.0
3776,58.34945820433437,200.0
3777,61.12616099071209,200.0
3778,58.131772445820424,200.0
3779,59.82004643962848,200.0
3780,59.10893962848297,200.0
3781,56.830495356037154,200.0
3782,58.77999226006192,200.0
3783,59.05572755417956,200.0
3784,60.81172600619195,200.0
3785,56.3032120743034,200.0
3786,60.34732972136223,200.0
3787,57.5077399380805,200.0
3788,56.274187306501545,200.0
3789,59.8780959752322,200.0
3790,57.57062693498453,200.0
3791,60.942337461300305,200.0
3792,59.26857585139317,200.0
3793,57.42550309597523,200.0
3794,58.460719814241486,200.0
3795,63.39976780185757,200.0
3796,55.151896284829725,200.0
3797,55.79527863777089,200.0
3798,58.79934210526315,200.0
3799,56.859520123839005,200.0
3800,56.40963622291022,200.0
3801,59.67492260061919,200.0
3802,57.56578947368421,200.0
3803,52.684791021671835,200.0
3804,59.234713622291025,200.0
3805,60.090944272445824,200.0
3806,60.86977554179566,200.0
3807,57.87538699690402,200.0
3808,55.142221362229115,200.0
3809,56.33707430340558,200.0
3810,59.86842105263158,200.0
3811,60.7391640866873,200.0
3812,59.070239938080505,200.0
3813,61.687306501548,200.0
3814,56.472523219814235,200.0
3815,61.087461300309606,200.0
3816,58.82352941176471,200.0
3817,57.56578947368421,200.0
3818,58.542956656346746,200.0
3819,56.8546826625387,200.0
3820,61.56153250773994,200.0
3821,56.13390092879257,200.0
3822,59.55398606811144,200.0
3823,56.869195046439636,200.0
3824,56.612809597523224,200.0
3825,60.565015479876166,200.0
3826,57.68188854489164,200.0
3827,60.0280572755418,200.0
3828,58.03986068111456,200.0
3829,55.055147058823536,200.0
3830,59.81520897832817,200.0
3831,57.82701238390093,200.0
3832,57.362616099071204,200.0
3833,57.744775541795654,200.0
3834,60.148993808049525,200.0
3835,58.65905572755418,200.0
3836,57.962461300309606,200.0
3837,55.79044117647059,200.0
3838,57.83668730650155,200.0
3839,58.044698142414866,200.0
3840,57.43517801857585,200.0
3841,59.27825077399381,200.0
3842,58.963815789473685,200.0
3843,60.80688854489164,200.0
3844,58.7219427244582,200.0
3845,59.20568885448916,200.0
3846,55.20510835913313,200.0
3847,57.42066563467493,200.0
3848,58.79450464396285,200.0
3849,60.545665634674926,200.0
3850,59.84907120743034,200.0
3851,62.58707430340558,200.0
3852,60.55534055727555,200.0
3853,58.0108359133127,200.0
3854,60.99071207430341,200.0
3855,57.348103715170275,200.0
3856,58.77999226006192,200.0
3857,60.64241486068113,200.0
3858,53.81675696594427,200.0
3859,62.07914086687306,200.0
3860,61.17453560371517,200.0
3861,60.057082043343655,200.0
3862,59.25406346749226,200.0
3863,59.53463622291022,200.0
3864,60.066756965944265,200.0
3865,60.3811919504644,200.0
3866,58.6155185758514,200.0
3867,56.16292569659442,200.0
3868,57.44485294117647,200.0
3869,61.05843653250775,200.0
3870,61.93401702786379,200.0
3871,57.575464396284815,200.0
3872,58.43653250773994,200.0
3873,57.381965944272444,200.0
3874,61.86629256965945,200.0
3875,59.22020123839009,200.0
3876,57.61416408668731,200.0
3877,58.50425696594427,200.0
3878,57.851199690402474,200.0
3879,60.49245356037152,200.0
3880,55.78560371517028,200.0
3881,55.800116099071204,200.0
3882,56.69020897832817,200.0
3883,59.297600619195045,200.0
3884,58.53328173374613,200.0
3885,56.177438080495364,200.0
3886,57.97697368421053,200.0
3887,59.19601393188856,200.0
3888,57.18363003095974,200.0
3889,55.79044117647059,200.0
3890,54.426277089783284,200.0
3891,59.162151702786375,200.0
3892,61.01006191950464,200.0
3893,58.692917956656345,200.0
3894,62.61609907120743,200.0
3895,61.18904798761609,200.0
3896,58.8186919504644,200.0
3897,61.39222136222911,200.0
3898,64.3624226006192,200.0
3899,59.16215170278638,200.0
3900,57.95762383900929,200.0
3901,60.037732198142415,200.0
3902,58.6155185758514,200.0
3903,54.67782507739938,200.0
3904,56.86435758513932,200.0
3905,57.67221362229102,200.0
3906,56.90789473684211,200.0
3907,59.83939628482972,200.0
3908,60.97136222910217,200.0
3909,58.34945820433437,200.0
3910,59.21052631578947,200.0
3911,57.39647832817337,200.0
3912,55.81462848297213,200.0
3913,58.354295665634666,200.0
3914,57.94794891640866,200.0
3915,57.08688080495356,200.0
3916,57.24167956656346,200.0
3917,56.08552631578947,200.0
3918,59.075077399380795,200.0
3919,54.51818885448916,200.0
3920,60.86010061919505,200.0
3921,62.23393962848295,200.0
3922,60.92298761609907,200.0
3923,58.34462074303407,200.0
3924,57.52708978328173,200.0
3925,57.7592879256966,200.0
3926,62.31133900928791,200.0
3927,64.56559597523221,200.0
3928,57.014318885448915,200.0
3929,58.89609133126935,200.0
3930,62.886996904024784,200.0
3931,57.67705108359132,200.0
3932,59.34113777089783,200.0
3933,60.124806501547994,200.0
3934,59.853908668730654,200.0
3935,58.92511609907121,200.0
3936,56.82565789473685,200.0
3937,57.73993808049536,200.0
3938,58.03502321981424,200.0
3939,61.33417182662539,200.0
3940,62.91118421052631,200.0
3941,59.849071207430335,200.0
3942,55.016447368421055,200.0
3943,57.415828173374614,200.0
3944,58.494582043343655,200.0
3945,61.213235294117645,200.0
3946,57.78347523219814,200.0
3947,59.824883900928796,200.0
3948,60.3328173374613,200.0
3949,57.02883126934984,200.0
3950,61.851780185758514,200.0
3951,56.448335913312704,200.0
3952,57.58513931888545,200.0
3953,60.390866873065015,200.0
3954,57.46904024767803,200.0
3955,59.86358359133128,200.0
3956,58.07856037151702,200.0
3957,59.297600619195045,200.0
3958,57.98181114551084,200.0
3959,59.94582043343652,200.0
3960,54.76489938080495,200.0
3961,55.01160990712074,200.0
3962,59.79102167182663,200.0
3963,56.47252321981424,200.0
3964,60.11513157894736,200.0
3965,62.316176470588225,200.0
3966,62.524187306501545,200.0
3967,60.79237616099071,200.0
3968,56.66602167182663,200.0
3969,57.08204334365325,200.0
3970,57.89473684210526,200.0
3971,54.91002321981424,200.0
3972,61.04876160990712,200.0
3973,57.20781733746131,200.0
3974,57.89473684210527,200.0
3975,59.78618421052631,200.0
3976,59.50077399380805,200.0
3977,62.30650154798761,200.0
3978,59.50077399380805,200.0
3979,56.24032507739938,200.0
3980,59.41369969040248,200.0
3981,57.86571207430341,200.0
3982,59.37500000000001,200.0
3983,57.59481424148607,200.0
3984,59.31211300309597,200.0
3985,62.19523993808049,200.0
3986,58.542956656346746,200.0
3987,59.71362229102167,200.0
3988,58.82836687306502,200.0
3989,58.88641640866873,200.0
3990,58.6203560371517,200.0
3991,55.71787925696594,200.0
3992,59.3217879256966,200.0
3993,63.433630030959755,200.0
3994,60.995549535603715,200.0
3995,56.641834365325074,200.0
3996,58.00599845201239,200.0
3997,57.89473684210526,200.0
3998,59.37983746130032,200.0
3999,60.70046439628483,200.0
4000,57.227167182662534,200.0
4001,57.8657120743034,200.0
4002,58.38332043343654,200.0
4003,61.469620743034056,200.0
4004,57.236842105263165,200.0
4005,60.11996904024767,200.0
4006,62.529024767801864,200.0
4007,58.32527089783281,200.0
4008,58.272058823529406,200.0
4009,58.07856037151702,200.0
4010,56.94175696594427,200.0
4011,59.32662538699691,200.0
4012,56.985294117647065,200.0
4013,61.56153250773994,200.0
4014,58.6106811145511,200.0
4015,57.27070433436533,200.0
4016,60.318304953560364,200.0
4017,58.77999226006192,200.0
4018,63.361068111455126,200.0
4019,54.95356037151703,200.0
4020,61.13583591331268,200.0
4021,55.07449690402477,200.0
4022,56.67569659442724,200.0
4023,59.39434984520124,200.0
4024,58.65421826625387,200.0
4025,59.815208978328165,200.0
4026,59.936145510835914,200.0
4027,59.58301083591331,200.0
4028,56.622484520123834,200.0
4029,56.43866099071207,200.0
4030,54.54721362229102,200.0
4031,57.028831269349844,200.0
4032,56.883707430340564,200.0
4033,59.679760061919495,200.0
4034,54.61977554179567,200.0
4035,57.91408668730651,200.0
4036,57.6044891640867,200.0
4037,59.52979876160991,200.0
4038,57.56578947368422,200.0
4039,55.224458204334354,200.0
4040,53.94736842105262,200.0
4041,57.92859907120744,200.0
4042,60.66176470588237,200.0
4043,58.38332043343653,200.0
4044,62.68382352941177,200.0
4045,56.94175696594427,200.0
4046,54.610100619195045,200.0
4047,58.58165634674923,200.0
4048,57.58030185758514,200.0
4049,59.75715944272446,200.0
4050,56.65150928792569,200.0
4051,56.5015479876161,200.0
4052,58.36880804953561,200.0
4053,57.735100619195045,200.0
4054,60.19736842105263,200.0
4055,56.008126934984524,200.0
4056,60.17318111455108,200.0
4057,56.046826625387,200.0
4058,56.19678792569659,200.0
4059,58.576818885448915,200.0
4060,60.58920278637771,200.0
4061,59.21536377708979,200.0
4062,60.632739938080505,200.0
4063,59.59268575851394,200.0
4064,58.122097523219814,200.0
4065,59.93130804953561,200.0
4066,57.115905572755416,200.0
4067,59.25890092879257,200.0
4068,54.11184210526316,200.0
4069,58.28173374613002,200.0
4070,58.92511609907121,200.0
4071,64.49787151702787,200.0
4072,58.180147058823536,200.0
4073,58.27205882352943,200.0
4074,58.020510835913306,200.0
4075,59.452399380804955,200.0
4076,56.48219814241486,200.0
4077,61.140673374613,200.0
4078,56.41447368421053,200.0
4079,57.265866873065015,200.0
4080,55.00677244582044,200.0
4081,57.483552631578945,200.0
4082,59.84907120743034,200.0
4083,56.578947368421055,200.0
4084,56.20162538699691,200.0
4085,56.33707430340558,200.0
4086,61.750193498452006,200.0
4087,56.670859133126946,200.0
4088,61.39705882352941,200.0
4089,56.88854489164087,200.0
4090,59.79585913312694,200.0
4091,58.81385448916409,200.0
4092,53.86513157894737,200.0
4093,55.89202786377709,200.0
4094,61.04876160990712,200.0
4095,58.4703947368421,200.0
4096,59.04605263157894,200.0
4097,59.650735294117645,200.0
4098,56.3999613003096,200.0
4099,60.119969040247675,200.0
4100,56.08068885448917,200.0
4101,61.55185758513932,200.0
4102,61.02941176470587,200.0
4103,55.72755417956656,200.0
4104,58.460719814241486,200.0
4105,58.88641640866874,200.0
4106,55.95007739938081,200.0
4107,54.64880030959752,200.0
4108,60.371517027863774,200.0
4109,61.484133126934985,200.0
4110,58.455882352941174,200.0
4111,58.28173374613004,200.0
4112,58.286571207430335,200.0
4113,61.522832817337466,200.0
4114,57.348103715170275,200.0
4115,60.74400154798761,200.0
4116,55.538893188854495,200.0
4117,56.578947368421055,200.0
4118,55.57759287925697,200.0
4119,61.73568111455108,200.0
4120,55.33088235294117,200.0
4121,61.469620743034056,200.0
4122,59.254063467492244,200.0
4123,54.121517027863774,200.0
4124,57.57062693498452,200.0
4125,54.150541795665646,200.0
4126,58.04469814241485,200.0
4127,59.263738390092875,200.0
4128,56.37577399380805,200.0
4129,57.81249999999999,200.0
4130,58.91544117647059,200.0
4131,61.66795665634674,200.0
4132,59.8780959752322,200.0
4133,55.84365325077399,200.0
4134,55.70336687306502,200.0
4135,59.72329721362229,200.0
4136,55.16157120743034,200.0
4137,61.948529411764696,200.0
4138,58.03018575851394,200.0
4139,58.630030959752325,200.0
4140,59.64106037151703,200.0
4141,59.171826625387,200.0
4142,60.20220588235295,200.0
4143,59.76683436532508,200.0
4144,54.97291021671827,200.0
4145,60.68595201238389,200.0
4146,58.27205882352941,200.0
