sample_id,accuracy,window_size
0,56.41931114551083,25.0
1,54.46981424148606,25.0
2,58.91544117647058,25.0
3,58.601006191950454,25.0
4,57.89957430340557,25.0
5,55.62113003095975,25.0
6,55.785603715170275,25.0
7,58.05921052631579,25.0
8,59.54914860681115,25.0
9,55.87267801857585,25.0
10,57.304566563467496,25.0
11,59.59268575851394,25.0
12,55.86300309597523,25.0
13,55.36958204334365,25.0
14,55.63564241486068,25.0
15,55.78560371517028,25.0
16,53.6280959752322,25.0
17,54.76973684210527,25.0
18,53.8312693498452,25.0
19,56.33707430340557,25.0
20,58.339783281733745,25.0
21,55.098684210526315,25.0
22,53.09597523219813,25.0
23,55.587267801857585,25.0
24,52.017221362229115,25.0
25,56.748258513931894,25.0
26,56.40479876160991,25.0
27,54.508513931888544,25.0
28,54.276315789473685,25.0
29,55.53405572755418,25.0
30,57.80766253869969,25.0
31,54.78908668730651,25.0
32,58.50909442724458,25.0
33,54.72136222910217,25.0
34,56.487035603715164,25.0
35,58.170472136222905,25.0
36,53.90866873065016,25.0
37,55.664667182662534,25.0
38,56.356424148606806,25.0
39,57.918924148606806,25.0
40,52.5203173374613,25.0
41,55.093846749226,25.0
42,54.581075851393194,25.0
43,56.27418730650155,25.0
44,58.60584365325077,25.0
45,56.540247678018574,25.0
46,58.726780185758514,25.0
47,58.21400928792569,25.0
48,55.04547213622291,25.0
49,51.25290247678019,25.0
50,57.0046439628483,25.0
51,57.21749226006192,25.0
52,57.22716718266254,25.0
53,55.67434210526317,25.0
54,55.3502321981424,25.0
55,55.451818885448915,25.0
56,53.23626160990712,25.0
57,58.83804179566564,25.0
58,60.0280572755418,25.0
59,57.65286377708978,25.0
60,54.41660216718266,25.0
61,56.33223684210526,25.0
62,56.91756965944272,25.0
63,58.66389318885448,25.0
64,54.716524767801864,25.0
65,56.28869969040248,25.0
66,59.45239938080495,25.0
67,58.4703947368421,25.0
68,58.842879256965944,25.0
69,56.13390092879256,25.0
70,56.337074303405565,25.0
71,55.90654024767802,25.0
72,53.328173374613,25.0
73,50.94814241486068,25.0
74,58.51393188854488,25.0
75,54.61010061919505,25.0
76,56.09520123839008,25.0
77,53.371710526315795,25.0
78,54.65847523219814,25.0
79,56.762770897832816,25.0
80,55.38893188854489,25.0
81,57.78347523219815,25.0
82,52.84442724458204,25.0
83,56.67569659442724,25.0
84,57.870549535603715,25.0
85,55.18092105263158,25.0
86,58.42685758513932,25.0
87,56.09520123839009,25.0
88,54.818111455108365,25.0
89,60.52631578947368,25.0
90,51.17550309597524,25.0
91,58.74613003095974,25.0
92,55.403444272445824,25.0
93,58.6203560371517,25.0
94,53.4249226006192,25.0
95,58.2672213622291,25.0
96,56.11938854489163,25.0
97,59.225038699690394,25.0
98,57.12074303405573,25.0
99,56.17260061919505,25.0
100,55.42763157894736,25.0
101,56.041989164086694,25.0
102,56.31288699690402,25.0
103,56.77244582043345,25.0
104,55.37925696594427,25.0
105,59.99903250773995,25.0
106,59.83455882352941,25.0
107,55.92589009287926,25.0
108,56.7047213622291,25.0
109,55.55824303405572,25.0
110,56.24032507739938,25.0
111,52.65576625386998,25.0
112,58.45104489164087,25.0
113,57.856037151702786,25.0
114,48.345588235294116,25.0
115,57.73993808049535,25.0
116,58.015673374613,25.0
117,55.73722910216719,25.0
118,55.88235294117648,25.0
119,56.22097523219813,25.0
120,56.10487616099071,25.0
121,54.32469040247678,25.0
122,53.400735294117645,25.0
123,60.99071207430341,25.0
124,54.33920278637771,25.0
125,55.601780185758514,25.0
126,57.52708978328173,25.0
127,57.280379256965944,25.0
128,58.978328173374614,25.0
129,52.56385448916409,25.0
130,57.29005417956657,25.0
131,57.42550309597523,25.0
132,54.33436532507739,25.0
133,57.222329721362215,25.0
134,56.01780185758514,25.0
135,59.936145510835914,25.0
136,56.83049535603715,25.0
137,60.27960526315789,25.0
138,63.138544891640855,25.0
139,53.64260835913312,25.0
140,56.31288699690402,25.0
141,56.574109907120736,25.0
142,59.68943498452012,25.0
143,57.3094040247678,25.0
144,58.291408668730654,25.0
145,56.525735294117645,25.0
146,54.80359907120743,25.0
147,54.37306501547988,25.0
148,59.27341331269349,25.0
149,55.62596749226007,25.0
150,57.043343653250766,25.0
151,54.7890866873065,25.0
152,57.08204334365325,25.0
153,59.35081269349845,25.0
154,55.480843653250766,25.0
155,57.556114551083596,25.0
156,58.93479102167182,25.0
157,49.8016640866873,25.0
158,60.318304953560364,25.0
159,57.686726006191954,25.0
160,54.136029411764696,25.0
161,61.527670278637785,25.0
162,58.402670278637764,25.0
163,59.05572755417956,25.0
164,56.6031346749226,25.0
165,56.59345975232198,25.0
166,56.73374613003096,25.0
167,61.6921439628483,25.0
168,55.176083591331285,25.0
169,57.212654798761605,25.0
170,56.00328947368421,25.0
171,58.09307275541795,25.0
172,60.265092879256976,25.0
173,54.71168730650154,25.0
174,58.13177244582043,25.0
175,56.32739938080495,25.0
176,59.147639318885446,25.0
177,55.42763157894736,25.0
178,56.5499226006192,25.0
179,52.18653250773994,25.0
180,54.2859907120743,25.0
181,54.00058049535603,25.0
182,54.12635448916409,25.0
183,55.297020123839005,25.0
184,58.13177244582043,25.0
185,59.87325851393189,25.0
186,57.6141640866873,25.0
187,53.555534055727556,25.0
188,55.20510835913313,25.0
189,60.13931888544892,25.0
190,55.45665634674922,25.0
191,61.13583591331268,25.0
192,54.5859133126935,25.0
193,57.24167956656348,25.0
194,57.435178018575854,25.0
195,51.36900154798762,25.0
196,57.12558049535605,25.0
197,54.910023219814235,25.0
198,59.32178792569659,25.0
199,53.07662538699691,25.0
200,60.318304953560364,25.0
201,57.56095201238389,25.0
202,57.51741486068111,25.0
203,53.1782120743034,25.0
204,58.07856037151703,25.0
205,56.32739938080495,25.0
206,57.52225232198142,25.0
207,59.08958978328173,25.0
208,53.79256965944272,25.0
209,54.102167182662534,25.0
210,57.1062306501548,25.0
211,55.81462848297213,25.0
212,60.68595201238389,25.0
213,52.52515479876161,25.0
214,55.171246130030966,25.0
215,54.445626934984524,25.0
216,59.83455882352941,25.0
217,56.32256191950464,25.0
218,57.768962848297214,25.0
219,54.431114551083596,25.0
220,55.253482972136226,25.0
221,57.86571207430341,25.0
222,51.62538699690403,25.0
223,57.381965944272444,25.0
224,55.90170278637771,25.0
225,56.0903637770898,25.0
226,53.79740712074304,25.0
227,51.59636222910216,25.0
228,59.036377708978335,25.0
229,58.054373065015476,25.0
230,58.44136996904025,25.0
231,59.30727554179566,25.0
232,56.08068885448917,25.0
233,57.135255417956664,25.0
234,55.267995356037154,25.0
235,57.71575077399381,25.0
236,61.06327399380805,25.0
237,53.086300309597526,25.0
238,54.41176470588234,25.0
239,56.680534055727556,25.0
240,53.497484520123834,25.0
241,53.01373839009288,25.0
242,57.5125773993808,25.0
243,60.24574303405572,25.0
244,55.2438080495356,25.0
245,59.665247678018574,25.0
246,58.64454334365324,25.0
247,52.49129256965945,25.0
248,55.43730650154799,25.0
249,60.424729102167184,25.0
250,56.04198916408669,25.0
251,54.798761609907125,25.0
252,56.965944272445824,25.0
253,57.164280185758514,25.0
254,60.11996904024767,25.0
255,56.82082043343653,25.0
256,57.70607585139319,25.0
257,54.73587461300309,25.0
258,54.963235294117645,25.0
259,53.29431114551083,25.0
260,54.09249226006192,25.0
261,59.39434984520123,25.0
262,58.00116099071207,25.0
263,57.115905572755416,25.0
264,56.62732198142415,25.0
265,54.85681114551084,25.0
266,57.59481424148607,25.0
267,57.47871517027864,25.0
268,54.84229876160991,25.0
269,54.24729102167183,25.0
270,57.9576238390093,25.0
271,53.923181114551085,25.0
272,61.837267801857585,25.0
273,57.89473684210526,25.0
274,57.164280185758514,25.0
275,58.85255417956655,25.0
276,55.26799535603715,25.0
277,52.76702786377709,25.0
278,54.46981424148607,25.0
279,63.81095201238389,25.0
280,61.203560371517035,25.0
281,56.03231424148606,25.0
282,55.83881578947369,25.0
283,59.26373839009288,25.0
284,56.593459752321984,25.0
285,60.94717492260061,25.0
286,53.990905572755416,25.0
287,55.58243034055728,25.0
288,58.8235294117647,25.0
289,58.14628482972136,25.0
290,54.648800309597526,25.0
291,54.62945046439628,25.0
292,54.73587461300309,25.0
293,61.37287151702785,25.0
294,56.12422600619195,25.0
295,57.469040247678016,25.0
296,55.79044117647058,25.0
297,54.49883900928791,25.0
298,56.21613777089783,25.0
299,58.48490712074303,25.0
300,57.07236842105264,25.0
301,55.61145510835914,25.0
302,50.81269349845201,25.0
303,58.775154798761605,25.0
304,60.05224458204333,25.0
305,59.71845975232198,25.0
306,57.07236842105263,25.0
307,55.267995356037154,25.0
308,55.76141640866873,25.0
309,53.42008513931888,25.0
310,55.11319659442726,25.0
311,56.240325077399376,25.0
312,57.20297987616099,25.0
313,58.13177244582044,25.0
314,58.50425696594427,25.0
315,54.677825077399376,25.0
316,56.52573529411765,25.0
317,56.071013931888544,25.0
318,54.56656346749226,25.0
319,54.7358746130031,25.0
320,56.859520123839005,25.0
321,55.15673374613003,25.0
322,53.6764705882353,25.0
323,53.86996904024768,25.0
324,58.0205108359133,25.0
325,54.61493808049536,25.0
326,58.915441176470594,25.0
327,58.088235294117645,25.0
328,58.630030959752325,25.0
329,53.8796439628483,25.0
330,58.58649380804954,25.0
331,60.303792569659436,25.0
332,55.790441176470594,25.0
333,55.85816563467491,25.0
334,56.767608359133135,25.0
335,59.86842105263159,25.0
336,55.17608359133127,25.0
337,60.83107585139319,25.0
338,57.25135448916409,25.0
339,52.94601393188855,25.0
340,53.318498452012385,25.0
341,55.24380804953561,25.0
342,57.943111455108365,25.0
343,60.17801857585138,25.0
344,56.38544891640866,25.0
345,56.69020897832817,25.0
346,52.215557275541805,25.0
347,54.65847523219815,25.0
348,54.14570433436533,25.0
349,55.34055727554179,25.0
350,54.90034829721362,25.0
351,57.077205882352956,25.0
352,56.71923374613002,25.0
353,55.118034055727556,25.0
354,56.724071207430335,25.0
355,56.79179566563467,25.0
356,53.86996904024767,25.0
357,61.469620743034056,25.0
358,59.96517027863777,25.0
359,58.3688080495356,25.0
360,57.64802631578948,25.0
361,56.39512383900929,25.0
362,59.41853715170278,25.0
363,61.058436532507756,25.0
364,57.24167956656347,25.0
365,57.59965170278639,25.0
366,56.08068885448917,25.0
367,55.519543343653254,25.0
368,54.94388544891641,25.0
369,56.6515092879257,25.0
370,57.18846749226005,25.0
371,55.71787925696595,25.0
372,58.34462074303405,25.0
373,53.86513157894736,25.0
374,60.642414860681114,25.0
375,54.22794117647059,25.0
376,55.00193498452012,25.0
377,54.95839783281733,25.0
378,54.96807275541795,25.0
379,56.93691950464397,25.0
380,56.59345975232198,25.0
381,56.16292569659442,25.0
382,56.51606037151703,25.0
383,55.51954334365324,25.0
384,57.07236842105263,25.0
385,54.861648606811144,25.0
386,58.33010835913313,25.0
387,55.28250773993809,25.0
388,54.494001547987615,25.0
389,57.164280185758514,25.0
390,54.60526315789474,25.0
391,53.18788699690402,25.0
392,58.10758513931889,25.0
393,61.17453560371517,25.0
394,54.55205108359134,25.0
395,55.05030959752322,25.0
396,55.06965944272446,25.0
397,60.26025541795666,25.0
398,55.272832817337466,25.0
399,57.47387770897833,25.0
400,56.1484133126935,25.0
401,60.10545665634676,25.0
402,57.21749226006192,25.0
403,55.92589009287926,25.0
404,56.99013157894736,25.0
405,56.00328947368421,25.0
406,51.00135448916408,25.0
407,62.5580495356037,25.0
408,59.79102167182663,25.0
409,53.632933436532504,25.0
410,58.88641640866873,25.0
411,52.67995356037152,25.0
412,55.57759287925697,25.0
413,59.62654798761611,25.0
414,60.661764705882355,25.0
415,57.028831269349844,25.0
416,56.28386222910217,25.0
417,53.26528637770898,25.0
418,52.4187306501548,25.0
419,54.726199690402474,25.0
420,55.717879256965944,25.0
421,56.806308049535595,25.0
422,58.005998452012385,25.0
423,55.185758513931894,25.0
424,55.616292569659436,25.0
425,57.65286377708978,25.0
426,55.52438080495355,25.0
427,59.53463622291022,25.0
428,56.936919504643974,25.0
429,57.498065015479874,25.0
430,54.14570433436532,25.0
431,55.693691950464405,25.0
432,53.9812306501548,25.0
433,57.22232972136223,25.0
434,60.0861068111455,25.0
435,56.55476006191951,25.0
436,59.42337461300309,25.0
437,56.24032507739939,25.0
438,54.44078947368422,25.0
439,59.486261609907125,25.0
440,59.22020123839008,25.0
441,50.78850619195046,25.0
442,55.98877708978328,25.0
443,57.69640092879257,25.0
444,60.14899380804953,25.0
445,58.77999226006192,25.0
446,57.32391640866872,25.0
447,56.308049535603715,25.0
448,57.63835139318886,25.0
449,54.513351393188856,25.0
450,52.85893962848298,25.0
451,55.345394736842096,25.0
452,53.02825077399382,25.0
453,58.591331269349844,25.0
454,61.60506965944272,25.0
455,55.16640866873065,25.0
456,54.75038699690402,25.0
457,57.61416408668732,25.0
458,56.825657894736835,25.0
459,54.37306501547988,25.0
460,58.712267801857585,25.0
461,56.25967492260061,25.0
462,50.74980650154799,25.0
463,54.513351393188856,25.0
464,57.788312693498455,25.0
465,57.69640092879257,25.0
466,57.05301857585139,25.0
467,57.86087461300309,25.0
468,52.37519349845201,25.0
469,57.80282507739938,25.0
470,58.93962848297214,25.0
471,54.73587461300309,25.0
472,60.89396284829722,25.0
473,58.644543343653254,25.0
474,55.53889318885449,25.0
475,53.995743034055735,25.0
476,58.06404798761611,25.0
477,53.14434984520125,25.0
478,60.1344814241486,25.0
479,54.34887770897834,25.0
480,55.974264705882355,25.0
481,55.674342105263165,25.0
482,60.46826625386998,25.0
483,58.09791021671827,25.0
484,58.238196594427244,25.0
485,61.585719814241486,25.0
486,55.67917956656346,25.0
487,53.45878482972137,25.0
488,57.725425696594435,25.0
489,54.3343653250774,25.0
490,55.606617647058826,25.0
491,55.29702012383902,25.0
492,56.91756965944272,25.0
493,55.95007739938081,25.0
494,55.78076625386997,25.0
495,54.72619969040247,25.0
496,56.12422600619194,25.0
497,58.33010835913312,25.0
498,57.570626934984524,25.0
499,57.29972910216719,25.0
500,56.29353715170279,25.0
501,56.25,25.0
502,58.67356811145512,25.0
503,58.39783281733745,25.0
504,56.29837461300309,25.0
505,60.26025541795666,25.0
506,57.454527863777095,25.0
507,59.94582043343652,25.0
508,55.35990712074304,25.0
509,51.45123839009288,25.0
510,57.12558049535604,25.0
511,56.76277089783281,25.0
512,55.698529411764696,25.0
513,51.97852167182663,25.0
514,54.8374613003096,25.0
515,55.243808049535616,25.0
516,54.91969814241486,25.0
517,54.94388544891642,25.0
518,52.341331269349844,25.0
519,56.98045665634675,25.0
520,58.13660990712075,25.0
521,55.60178018575852,25.0
522,55.91621517027863,25.0
523,56.782120743034056,25.0
524,55.6453173374613,25.0
525,56.52573529411765,25.0
526,54.56172600619196,25.0
527,57.8608746130031,25.0
528,59.06540247678019,25.0
529,57.01431888544891,25.0
530,57.67705108359133,25.0
531,55.669504643962846,25.0
532,54.46013931888544,25.0
533,54.31501547987616,25.0
534,57.367453560371516,25.0
535,50.39667182662539,25.0
536,55.72755417956656,25.0
537,58.80901702786378,25.0
538,62.51451238390093,25.0
539,57.09171826625387,25.0
540,55.6985294117647,25.0
541,56.26451238390093,25.0
542,53.744195046439636,25.0
543,55.94523993808049,25.0
544,58.40750773993808,25.0
545,57.062693498452006,25.0
546,56.965944272445824,25.0
547,59.31695046439629,25.0
548,58.1124226006192,25.0
549,55.48084365325077,25.0
550,57.59481424148606,25.0
551,59.74264705882353,25.0
552,57.02883126934984,25.0
553,54.590750773993804,25.0
554,57.98664860681114,25.0
555,60.19736842105264,25.0
556,55.16157120743034,25.0
557,56.86435758513932,25.0
558,55.98877708978329,25.0
559,57.7641253869969,25.0
560,58.29140866873065,25.0
561,55.46149380804953,25.0
562,58.67356811145511,25.0
563,59.75715944272446,25.0
564,55.76141640866873,25.0
565,55.151896284829725,25.0
566,53.64260835913313,25.0
567,57.62383900928792,25.0
568,55.62596749226006,25.0
569,55.567917956656345,25.0
570,58.02534829721362,25.0
571,57.84636222910216,25.0
572,55.335719814241486,25.0
573,52.52515479876161,25.0
574,57.25135448916409,25.0
575,54.51818885448916,25.0
576,54.64396284829722,25.0
577,57.77863777089784,25.0
578,53.64260835913313,25.0
579,59.02670278637771,25.0
580,56.19678792569659,25.0
581,56.36609907120743,25.0
582,59.01219040247678,25.0
583,56.008126934984524,25.0
584,57.43034055727554,25.0
585,57.672213622291025,25.0
586,57.73026315789474,25.0
587,57.0530185758514,25.0
588,60.153831269349844,25.0
589,59.81520897832818,25.0
590,53.284636222910216,25.0
591,56.2016253869969,25.0
592,52.210719814241486,25.0
593,49.03734520123839,25.0
594,58.68324303405573,25.0
595,57.93827399380806,25.0
596,57.599651702786375,25.0
597,57.299729102167184,25.0
598,56.68537151702786,25.0
599,57.79798761609908,25.0
600,53.95704334365325,25.0
601,53.01373839009287,25.0
602,55.925890092879264,25.0
603,56.835332817337466,25.0
604,51.81888544891641,25.0
605,54.56656346749226,25.0
606,54.9922600619195,25.0
607,57.2610294117647,25.0
608,54.62945046439628,25.0
609,57.89957430340558,25.0
610,57.827012383900936,25.0
611,58.99767801857585,25.0
612,57.48355263157894,25.0
613,56.53541021671827,25.0
614,55.96942724458205,25.0
615,55.71304179566563,25.0
616,54.16021671826625,25.0
617,57.381965944272444,25.0
618,57.551277089783284,25.0
619,58.67356811145512,25.0
620,55.118034055727556,25.0
621,53.70549535603715,25.0
622,62.093653250774,25.0
623,56.46284829721362,25.0
624,57.381965944272444,25.0
625,56.61764705882353,25.0
626,56.191950464396285,25.0
627,55.050309597523224,25.0
628,58.03018575851393,25.0
629,54.49883900928792,25.0
630,58.81385448916408,25.0
631,55.86784055727554,25.0
632,54.24729102167183,25.0
633,56.58862229102166,25.0
634,58.03018575851394,25.0
635,58.663893188854495,25.0
636,59.234713622291025,25.0
637,58.68324303405573,25.0
638,60.56985294117647,25.0
639,55.35023219814242,25.0
640,51.857585139318886,25.0
641,55.93072755417956,25.0
642,57.86087461300309,25.0
643,51.27225232198141,25.0
644,58.15595975232198,25.0
645,56.10971362229102,25.0
646,59.18150154798761,25.0
647,55.8968653250774,25.0
648,56.21130030959752,25.0
649,53.26044891640867,25.0
650,57.97697368421052,25.0
651,55.21962074303404,25.0
652,60.3811919504644,25.0
653,52.52031733746131,25.0
654,58.489744582043336,25.0
655,56.61280959752322,25.0
656,58.07372291021672,25.0
657,52.307469040247675,25.0
658,55.88719040247678,25.0
659,57.9092492260062,25.0
660,55.67917956656346,25.0
661,55.12287151702787,25.0
662,55.853328173374614,25.0
663,54.7890866873065,25.0
664,58.59133126934984,25.0
665,60.0812693498452,25.0
666,55.887190402476776,25.0
667,59.26857585139319,25.0
668,58.57198142414862,25.0
669,53.15886222910217,25.0
670,52.55901702786377,25.0
671,56.511222910216716,25.0
672,59.19117647058823,25.0
673,54.784249226006196,25.0
674,55.55340557275541,25.0
675,58.586493808049525,25.0
676,52.77670278637771,25.0
677,61.66795665634675,25.0
678,54.42143962848298,25.0
679,55.403444272445824,25.0
680,55.171246130030966,25.0
681,56.815982972136226,25.0
682,55.2389705882353,25.0
683,56.08552631578947,25.0
684,59.40886222910216,25.0
685,54.377902476780186,25.0
686,56.6031346749226,25.0
687,53.95704334365325,25.0
688,59.56849845201238,25.0
689,58.475232198142415,25.0
690,58.22852167182663,25.0
691,55.48568111455108,25.0
692,59.940982972136226,25.0
693,60.3860294117647,25.0
694,54.54721362229103,25.0
695,56.56927244582043,25.0
696,61.875967492260074,25.0
697,55.84365325077399,25.0
698,57.47387770897832,25.0
699,59.70878482972137,25.0
700,56.17260061919506,25.0
701,62.51451238390093,25.0
702,57.85603715170278,25.0
703,55.26315789473684,25.0
704,59.93614551083591,25.0
705,54.11667956656346,25.0
706,56.24032507739939,25.0
707,58.15595975232198,25.0
708,58.60584365325078,25.0
709,60.57469040247676,25.0
710,57.27554179566564,25.0
711,59.99903250773995,25.0
712,56.66602167182663,25.0
713,56.1484133126935,25.0
714,54.044117647058826,25.0
715,55.39376934984521,25.0
716,56.21613777089783,25.0
717,55.58726780185758,25.0
718,50.94330495356037,25.0
719,57.35777863777089,25.0
720,60.03289473684212,25.0
721,56.31288699690403,25.0
722,58.659055727554176,25.0
723,55.12287151702787,25.0
724,57.25135448916409,25.0
725,56.79179566563467,25.0
726,54.716524767801864,25.0
727,56.28869969040248,25.0
728,53.76354489164086,25.0
729,57.12558049535603,25.0
730,59.234713622291025,25.0
731,57.06753095975233,25.0
732,57.280379256965944,25.0
733,56.16292569659443,25.0
734,54.44078947368422,25.0
735,56.47252321981424,25.0
736,54.963235294117645,25.0
737,56.41447368421053,25.0
738,56.37577399380806,25.0
739,55.2389705882353,25.0
740,55.272832817337466,25.0
741,59.67008513931887,25.0
742,59.046052631578945,25.0
743,55.41311919504644,25.0
744,59.26857585139319,25.0
745,52.76219040247678,25.0
746,55.35023219814242,25.0
747,56.82565789473683,25.0
748,57.32391640866872,25.0
749,54.74554953560372,25.0
750,58.43169504643964,25.0
751,56.3999613003096,25.0
752,54.392414860681114,25.0
753,56.96110681114551,25.0
754,55.65982972136223,25.0
755,61.48413312693498,25.0
756,53.06211300309597,25.0
757,53.289473684210535,25.0
758,54.78908668730651,25.0
759,59.15247678018576,25.0
760,53.98606811145511,25.0
761,55.87751547987616,25.0
762,56.20646284829722,25.0
763,59.3266253869969,25.0
764,57.31907894736841,25.0
765,57.81250000000001,25.0
766,55.156733746130016,25.0
767,54.42143962848297,25.0
768,55.40828173374613,25.0
769,56.090363777089784,25.0
770,56.148413312693506,25.0
771,54.5762383900929,25.0
772,52.42840557275542,25.0
773,54.50851393188855,25.0
774,59.61687306501547,25.0
775,56.438660990712066,25.0
776,59.39918730650155,25.0
777,61.35352167182662,25.0
778,58.76547987616099,25.0
779,51.37383900928793,25.0
780,56.695046439628484,25.0
781,54.94872291021672,25.0
782,56.86435758513933,25.0
783,57.067530959752325,25.0
784,57.81249999999999,25.0
785,58.28657120743033,25.0
786,60.95201238390092,25.0
787,57.58997678018576,25.0
788,52.23490712074304,25.0
789,52.834752321981426,25.0
790,61.600232198142415,25.0
791,57.14976780185759,25.0
792,57.67705108359133,25.0
793,55.6985294117647,25.0
794,55.93072755417957,25.0
795,60.090944272445824,25.0
796,53.923181114551085,25.0
797,56.74342105263159,25.0
798,56.90789473684211,25.0
799,58.32043343653251,25.0
800,57.79315015479876,25.0
801,55.02128482972136,25.0
802,54.74554953560373,25.0
803,57.66253869969041,25.0
804,53.570046439628484,25.0
805,52.147832817337466,25.0
806,58.944465944272444,25.0
807,57.67705108359134,25.0
808,56.84984520123839,25.0
809,57.111068111455104,25.0
810,60.25058049535604,25.0
811,59.24438854489164,25.0
812,56.8546826625387,25.0
813,56.63215944272446,25.0
814,56.22097523219814,25.0
815,55.51470588235294,25.0
816,57.41582817337461,25.0
817,58.47039473684211,25.0
818,56.73858359133127,25.0
819,53.686145510835914,25.0
820,57.217492260061924,25.0
821,53.125,25.0
822,52.941176470588246,25.0
823,53.608746130030966,25.0
824,55.30185758513932,25.0
825,54.910023219814235,25.0
826,56.87886996904026,25.0
827,56.25967492260062,25.0
828,54.315015479876166,25.0
829,54.10700464396285,25.0
830,56.06617647058823,25.0
831,55.398606811145505,25.0
832,59.200851393188856,25.0
833,56.661184210526315,25.0
834,53.715170278637764,25.0
835,57.39164086687307,25.0
836,56.87403250773994,25.0
837,56.791795665634666,25.0
838,55.093846749226,25.0
839,56.32256191950464,25.0
840,58.99767801857585,25.0
841,54.73103715170278,25.0
842,59.66041021671827,25.0
843,58.262383900928796,25.0
844,58.07856037151702,25.0
845,56.25000000000001,25.0
846,51.63989938080495,25.0
847,56.08552631578947,25.0
848,56.762770897832816,25.0
849,57.522252321981426,25.0
850,61.01973684210526,25.0
851,59.79585913312693,25.0
852,60.50696594427244,25.0
853,50.425696594427244,25.0
854,57.556114551083596,25.0
855,58.218846749226,25.0
856,58.015673374612994,25.0
857,55.988777089783284,25.0
858,58.015673374612994,25.0
859,57.5029024767802,25.0
860,57.65286377708976,25.0
861,56.77244582043343,25.0
862,58.62519349845202,25.0
863,56.680534055727556,25.0
864,58.51393188854489,25.0
865,58.068885448916404,25.0
866,56.77244582043344,25.0
867,52.42840557275542,25.0
868,57.63351393188855,25.0
869,52.123645510835914,25.0
870,57.09655572755418,25.0
871,58.276896284829725,25.0
872,58.223684210526315,25.0
873,56.43382352941177,25.0
874,52.16234520123839,25.0
875,57.18846749226006,25.0
876,56.724071207430335,25.0
877,54.55205108359134,25.0
878,59.665247678018574,25.0
879,55.35506965944273,25.0
880,58.71226780185759,25.0
881,58.726780185758514,25.0
882,59.15731424148606,25.0
883,57.94794891640867,25.0
884,54.63428792569658,25.0
885,60.13931888544891,25.0
886,58.73161764705883,25.0
887,60.36667956656347,25.0
888,56.071013931888544,25.0
889,55.10835913312693,25.0
890,57.49806501547988,25.0
891,54.982585139318886,25.0
892,57.362616099071204,25.0
893,57.69156346749226,25.0
894,57.64318885448916,25.0
895,54.04895510835914,25.0
896,59.57333591331269,25.0
897,59.128289473684205,25.0
898,56.138738390092875,25.0
899,56.33707430340558,25.0
900,55.03095975232197,25.0
901,61.05843653250775,25.0
902,53.826431888544896,25.0
903,51.359326625387,25.0
904,61.88080495356036,25.0
905,57.29005417956656,25.0
906,55.16640866873065,25.0
907,54.34404024767802,25.0
908,57.5125773993808,25.0
909,56.825657894736835,25.0
910,55.79044117647059,25.0
911,58.96381578947368,25.0
912,59.70878482972136,25.0
913,55.8968653250774,25.0
914,55.20510835913313,25.0
915,57.527089783281724,25.0
916,55.15189628482973,25.0
917,60.240905572755416,25.0
918,58.49458204334364,25.0
919,55.940402476780186,25.0
920,54.92453560371517,25.0
921,57.836687306501545,25.0
922,52.278444272445824,25.0
923,53.89415634674922,25.0
924,55.19543343653251,25.0
925,58.078560371517035,25.0
926,56.29353715170277,25.0
927,54.42627708978328,25.0
928,56.680534055727556,25.0
929,55.16640866873065,25.0
930,57.44485294117648,25.0
931,58.70259287925697,25.0
932,57.88022445820433,25.0
933,55.0406346749226,25.0
934,56.578947368421055,25.0
935,58.29624613003096,25.0
936,58.8719040247678,25.0
937,54.08281733746131,25.0
938,55.28250773993808,25.0
939,60.642414860681114,25.0
940,53.72484520123839,25.0
941,54.266640866873075,25.0
942,55.90654024767802,25.0
943,59.68943498452012,25.0
944,58.944465944272444,25.0
945,59.41853715170277,25.0
946,53.32333591331268,25.0
947,56.487035603715164,25.0
948,54.581075851393194,25.0
949,56.845007739938076,25.0
950,59.36048761609907,25.0
951,55.91621517027863,25.0
952,54.11667956656346,25.0
953,54.643962848297214,25.0
954,54.75038699690403,25.0
955,59.15731424148607,25.0
956,53.70549535603715,25.0
957,58.789667182662534,25.0
958,60.18769349845201,25.0
959,56.78695820433437,25.0
960,56.78212074303405,25.0
961,62.00657894736842,25.0
962,51.359326625387,25.0
963,58.847716718266255,25.0
964,55.09384674922601,25.0
965,55.147058823529406,25.0
966,56.52573529411766,25.0
967,59.8297213622291,25.0
968,57.12074303405573,25.0
969,57.02399380804953,25.0
970,56.046826625387,25.0
971,58.218846749226,25.0
972,57.65286377708977,25.0
973,54.26180340557275,25.0
974,54.295665634674926,25.0
975,59.67492260061919,25.0
976,55.49535603715171,25.0
977,55.46633126934984,25.0
978,51.36416408668731,25.0
979,60.08610681114551,25.0
980,58.29624613003096,25.0
981,59.40402476780186,25.0
982,56.661184210526315,25.0
983,53.81675696594427,25.0
984,58.039860681114554,25.0
985,57.9624613003096,25.0
986,56.58378482972136,25.0
987,57.193304953560364,25.0
988,55.9984520123839,25.0
989,57.164280185758514,25.0
990,54.25696594427245,25.0
991,56.79179566563467,25.0
992,55.50986842105264,25.0
993,56.1484133126935,25.0
994,60.91815015479876,25.0
995,62.02592879256966,25.0
996,52.16234520123839,25.0
997,55.7469040247678,25.0
998,53.71033281733746,25.0
999,59.22987616099071,25.0
1000,60.98103715170278,25.0
1001,58.223684210526315,25.0
1002,59.75232198142414,25.0
1003,53.89899380804953,25.0
1004,56.975619195046434,25.0
1005,54.610100619195045,25.0
1006,56.07101393188855,25.0
1007,55.335719814241486,25.0
1008,59.44756191950464,25.0
1009,58.654218266253864,25.0
1010,53.773219814241486,25.0
1011,56.43382352941177,25.0
1012,58.015673374612994,25.0
1013,59.88777089783282,25.0
1014,60.81172600619195,25.0
1015,54.56656346749226,25.0
1016,57.498065015479874,25.0
1017,57.48839009287926,25.0
1018,57.918924148606806,25.0
1019,55.538893188854495,25.0
1020,56.046826625387006,25.0
1021,58.40267027863777,25.0
1022,53.903831269349844,25.0
1023,56.932082043343655,25.0
1024,53.279798761609904,25.0
1025,56.346749226006196,25.0
1026,58.27205882352942,25.0
1027,56.16292569659442,25.0
1028,61.8034055727554,25.0
1029,59.936145510835914,25.0
1030,58.0108359133127,25.0
1031,55.838815789473685,25.0
1032,57.79798761609907,25.0
1033,58.76547987616099,25.0
1034,57.66253869969041,25.0
1035,56.16292569659442,25.0
1036,58.86222910216718,25.0
1037,56.75309597523219,25.0
1038,56.08552631578947,25.0
1039,53.30882352941176,25.0
1040,56.796633126934985,25.0
1041,59.5249613003096,25.0
1042,58.75580495356037,25.0
1043,55.171246130030966,25.0
1044,58.562306501547994,25.0
1045,56.06617647058824,25.0
1046,51.91079721362229,25.0
1047,55.44698142414861,25.0
1048,54.57140092879257,25.0
1049,60.395704334365334,25.0
1050,52.97987616099071,25.0
1051,58.93479102167183,25.0
1052,54.41176470588236,25.0
1053,54.50367647058823,25.0
1054,60.07159442724458,25.0
1055,58.61068111455108,25.0
1056,57.33842879256966,25.0
1057,61.90982972136223,25.0
1058,52.73316563467492,25.0
1059,58.77999226006192,25.0
1060,57.80282507739939,25.0
1061,55.55340557275542,25.0
1062,53.855456656346746,25.0
1063,52.892801857585134,25.0
1064,56.86435758513932,25.0
1065,56.341911764705884,25.0
1066,58.044698142414866,25.0
1067,55.68885448916409,25.0
1068,59.67008513931889,25.0
1069,56.970781733746136,25.0
1070,56.288699690402474,25.0
1071,57.07236842105262,25.0
1072,56.849845201238395,25.0
1073,55.99845201238389,25.0
1074,56.52573529411765,25.0
1075,53.35719814241486,25.0
1076,57.73993808049536,25.0
1077,54.78908668730651,25.0
1078,57.06269349845201,25.0
1079,57.97213622291022,25.0
1080,58.3155959752322,25.0
1081,57.69640092879257,25.0
1082,59.128289473684205,25.0
1083,54.91969814241486,25.0
1084,55.65015479876161,25.0
1085,59.54914860681114,25.0
1086,54.474651702786375,25.0
1087,54.85681114551084,25.0
1088,58.42202012383901,25.0
1089,57.086880804953545,25.0
1090,55.51954334365324,25.0
1091,55.340557275541805,25.0
1092,61.4889705882353,25.0
1093,57.37229102167183,25.0
1094,57.82217492260062,25.0
1095,58.63486842105263,25.0
1096,58.180147058823536,25.0
1097,56.975619195046434,25.0
1098,55.785603715170275,25.0
1099,55.13254643962847,25.0
1100,52.41389318885449,25.0
1101,57.78831269349845,25.0
1102,56.4483359133127,25.0
1103,56.76277089783281,25.0
1104,54.98742260061919,25.0
1105,57.406153250774,25.0
1106,54.93421052631579,25.0
1107,53.04760061919505,25.0
1108,55.52921826625387,25.0
1109,58.95897832817337,25.0
1110,55.12770897832817,25.0
1111,52.573529411764696,25.0
1112,57.31907894736842,25.0
1113,56.66602167182663,25.0
1114,57.18846749226006,25.0
1115,55.49051857585139,25.0
1116,57.90441176470589,25.0
1117,48.63583591331269,25.0
1118,58.320433436532504,25.0
1119,57.8125,25.0
1120,54.06830495356038,25.0
1121,61.36803405572755,25.0
1122,58.779992260061924,25.0
1123,56.646671826625386,25.0
1124,58.900928792569665,25.0
1125,54.51818885448916,25.0
1126,56.83049535603715,25.0
1127,58.504256965944286,25.0
1128,58.07856037151703,25.0
1129,55.035797213622295,25.0
1130,55.79044117647058,25.0
1131,56.58378482972136,25.0
1132,55.785603715170275,25.0
1133,57.32391640866873,25.0
1134,58.34462074303405,25.0
1135,57.5125773993808,25.0
1136,55.601780185758514,25.0
1137,55.819465944272444,25.0
1138,58.26722136222911,25.0
1139,59.73297213622291,25.0
1140,53.19272445820433,25.0
1141,58.039860681114554,25.0
1142,59.036377708978335,25.0
1143,54.35371517027864,25.0
1144,57.84636222910217,25.0
1145,58.847716718266255,25.0
1146,56.55959752321981,25.0
1147,53.840944272445824,25.0
1148,56.235487616099064,25.0
1149,56.41931114551083,25.0
1150,54.66815015479876,25.0
1151,53.27012383900929,25.0
1152,55.22929566563467,25.0
1153,56.07101393188855,25.0
1154,54.65363777089784,25.0
1155,50.769156346749234,25.0
1156,54.0344427244582,25.0
1157,57.585139318885446,25.0
1158,54.91969814241486,25.0
1159,56.91756965944273,25.0
1160,54.22794117647059,25.0
1161,58.523606811145505,25.0
1162,59.33630030959752,25.0
1163,57.82217492260062,25.0
1164,56.88854489164087,25.0
1165,54.053792569659436,25.0
1166,54.34887770897833,25.0
1167,59.4765866873065,25.0
1168,57.21265479876161,25.0
1169,55.66466718266254,25.0
1170,55.80495356037152,25.0
1171,54.237616099071204,25.0
1172,56.86435758513932,25.0
1173,60.6279024767802,25.0
1174,56.03715170278638,25.0
1175,52.85410216718267,25.0
1176,54.96807275541795,25.0
1177,53.98606811145511,25.0
1178,56.409636222910216,25.0
1179,56.88370743034056,25.0
1180,59.62171052631579,25.0
1181,57.261029411764696,25.0
1182,58.073722910216716,25.0
1183,56.52089783281735,25.0
1184,55.79044117647059,25.0
1185,59.25890092879257,25.0
1186,59.10893962848297,25.0
1187,54.70201238390093,25.0
1188,54.93421052631578,25.0
1189,56.84017027863777,25.0
1190,59.01702786377709,25.0
1191,55.06965944272446,25.0
1192,55.67917956656346,25.0
1193,58.591331269349844,25.0
1194,52.994388544891635,25.0
1195,55.853328173374614,25.0
1196,56.95143188854489,25.0
1197,55.32120743034055,25.0
1198,56.79179566563467,25.0
1199,55.316369969040245,25.0
1200,58.296246130030966,25.0
1201,55.804953560371516,25.0
1202,56.59829721362229,25.0
1203,54.716524767801864,25.0
1204,54.90518575851394,25.0
1205,54.69233746130031,25.0
1206,56.54024767801859,25.0
1207,58.84771671826625,25.0
1208,59.76683436532508,25.0
1209,58.509094427244584,25.0
1210,55.34539473684211,25.0
1211,55.3453947368421,25.0
1212,58.659055727554176,25.0
1213,57.55611455108359,25.0
1214,58.625193498452006,25.0
1215,56.83533281733746,25.0
1216,56.090363777089784,25.0
1217,56.92240712074303,25.0
1218,60.08126934984519,25.0
1219,58.441369969040245,25.0
1220,56.7530959752322,25.0
1221,58.78482972136223,25.0
1222,55.030959752321984,25.0
1223,54.60042569659442,25.0
1224,57.130417956656345,25.0
1225,56.17743808049536,25.0
1226,62.67414860681115,25.0
1227,56.66118421052631,25.0
1228,55.853328173374614,25.0
1229,60.724651702786375,25.0
1230,53.976393188854495,25.0
1231,58.692917956656345,25.0
1232,58.00116099071208,25.0
1233,56.75309597523219,25.0
1234,55.25832043343654,25.0
1235,52.35584365325077,25.0
1236,57.44969040247678,25.0
1237,58.63486842105262,25.0
1238,59.670085139318886,25.0
1239,58.69775541795666,25.0
1240,57.3094040247678,25.0
1241,55.350232198142415,25.0
1242,55.13254643962847,25.0
1243,55.297020123839005,25.0
1244,55.548568111455104,25.0
1245,56.26451238390092,25.0
1246,58.49941950464397,25.0
1247,54.861648606811144,25.0
1248,63.87383900928793,25.0
1249,56.680534055727556,25.0
1250,60.33765479876162,25.0
1251,57.37712848297214,25.0
1252,54.963235294117645,25.0
1253,59.85874613003096,25.0
1254,58.14144736842105,25.0
1255,56.22097523219815,25.0
1256,55.89686532507739,25.0
1257,54.527863777089784,25.0
1258,56.37093653250774,25.0
1259,55.42279411764706,25.0
1260,56.97561919504644,25.0
1261,53.66679566563467,25.0
1262,57.18846749226005,25.0
1263,55.95975232198142,25.0
1264,58.944465944272444,25.0
1265,57.07720588235294,25.0
1266,54.861648606811144,25.0
1267,53.98123065015481,25.0
1268,54.51818885448916,25.0
1269,55.04063467492261,25.0
1270,59.0218653250774,25.0
1271,55.79527863777089,25.0
1272,59.79102167182663,25.0
1273,60.0280572755418,25.0
1274,53.773219814241486,25.0
1275,54.93904798761611,25.0
1276,56.87403250773995,25.0
1277,55.7952786377709,25.0
1278,54.68750000000001,25.0
1279,57.415828173374614,25.0
1280,58.50425696594428,25.0
1281,57.30456656346749,25.0
1282,52.90247678018576,25.0
1283,59.83939628482973,25.0
1284,53.16369969040249,25.0
1285,55.91137770897833,25.0
1286,52.87828947368421,25.0
1287,58.13660990712074,25.0
1288,53.40073529411765,25.0
1289,58.66389318885448,25.0
1290,56.30804953560372,25.0
1291,61.421246130030966,25.0
1292,60.221555727554176,25.0
1293,57.1594427244582,25.0
1294,56.7047213622291,25.0
1295,55.872678018575854,25.0
1296,57.17879256965944,25.0
1297,57.967298761609904,25.0
1298,53.44427244582043,25.0
1299,61.005224458204324,25.0
1300,59.03154024767803,25.0
1301,55.36474458204334,25.0
1302,59.742647058823536,25.0
1303,59.00735294117647,25.0
1304,52.578366873065015,25.0
1305,56.42898606811145,25.0
1306,55.38409442724458,25.0
1307,58.86706656346749,25.0
1308,53.971555727554176,25.0
1309,53.26044891640867,25.0
1310,54.40692724458204,25.0
1311,53.9328560371517,25.0
1312,55.147058823529406,25.0
1313,54.890673374612994,25.0
1314,57.29005417956656,25.0
1315,56.68537151702786,25.0
1316,56.699883900928796,25.0
1317,57.81249999999999,25.0
1318,53.710332817337466,25.0
1319,55.02128482972136,25.0
1320,53.652283281733745,25.0
1321,57.15460526315789,25.0
1322,57.85603715170279,25.0
1323,57.991486068111456,25.0
1324,59.61687306501548,25.0
1325,57.135255417956664,25.0
1326,56.22097523219815,25.0
1327,54.005417956656345,25.0
1328,57.07236842105263,25.0
1329,56.28869969040248,25.0
1330,55.287345201238395,25.0
1331,56.53057275541796,25.0
1332,56.25967492260062,25.0
1333,51.97852167182662,25.0
1334,55.804953560371516,25.0
1335,55.616292569659436,25.0
1336,53.90866873065016,25.0
1337,54.87616099071207,25.0
1338,54.556888544891635,25.0
1339,55.29702012383901,25.0
1340,58.978328173374614,25.0
1341,55.485681114551085,25.0
1342,62.57256191950463,25.0
1343,58.692917956656345,25.0
1344,55.471168730650156,25.0
1345,58.296246130030966,25.0
1346,59.19117647058823,25.0
1347,58.1124226006192,25.0
1348,58.63003095975231,25.0
1349,57.444852941176464,25.0
1350,54.08765479876162,25.0
1351,56.428986068111456,25.0
1352,54.91969814241485,25.0
1353,57.20781733746129,25.0
1354,54.610100619195045,25.0
1355,55.887190402476776,25.0
1356,59.824883900928796,25.0
1357,56.9030572755418,25.0
1358,59.12828947368421,25.0
1359,55.737229102167184,25.0
1360,58.60100619195046,25.0
1361,58.557469040247675,25.0
1362,53.163699690402474,25.0
1363,56.88854489164087,25.0
1364,55.55824303405573,25.0
1365,53.74903250773993,25.0
1366,60.627902476780186,25.0
1367,54.43595201238389,25.0
1368,54.30050309597524,25.0
1369,57.6625386996904,25.0
1370,55.90654024767802,25.0
1371,57.536764705882355,25.0
1372,55.38893188854489,25.0
1373,53.923181114551085,25.0
1374,56.462848297213625,25.0
1375,57.80766253869969,25.0
1376,56.53057275541796,25.0
1377,58.513931888544896,25.0
1378,54.75522445820433,25.0
1379,55.90170278637771,25.0
1380,57.02883126934985,25.0
1381,55.282507739938076,25.0
1382,53.434597523219814,25.0
1383,57.41099071207431,25.0
1384,56.01296439628483,25.0
1385,53.7780572755418,25.0
1386,54.977747678018574,25.0
1387,58.99767801857584,25.0
1388,58.65421826625387,25.0
1389,54.5859133126935,25.0
1390,57.64802631578947,25.0
1391,56.32256191950464,25.0
1392,59.8829334365325,25.0
1393,54.223103715170275,25.0
1394,59.09442724458205,25.0
1395,57.78831269349845,25.0
1396,57.65286377708978,25.0
1397,59.737809597523224,25.0
1398,58.779992260061924,25.0
1399,57.07720588235295,25.0
1400,59.11377708978329,25.0
1401,58.05437306501548,25.0
1402,53.23626160990711,25.0
1403,60.627902476780186,25.0
1404,54.11667956656346,25.0
1405,56.18227554179566,25.0
1406,62.737035603715185,25.0
1407,55.63564241486068,25.0
1408,52.8250773993808,25.0
1409,56.675696594427244,25.0
1410,55.384094427244584,25.0
1411,52.64609133126935,25.0
1412,54.97774767801858,25.0
1413,56.88370743034056,25.0
1414,59.53947368421052,25.0
1415,55.988777089783284,25.0
1416,54.726199690402474,25.0
1417,58.910603715170275,25.0
1418,58.07372291021672,25.0
1419,53.56037151702787,25.0
1420,55.538893188854495,25.0
1421,53.88931888544892,25.0
1422,60.49729102167183,25.0
1423,54.963235294117645,25.0
1424,55.974264705882355,25.0
1425,57.449690402476776,25.0
1426,53.937693498452006,25.0
1427,54.61010061919505,25.0
1428,56.01296439628483,25.0
1429,53.24109907120743,25.0
1430,58.19465944272446,25.0
1431,55.71304179566564,25.0
1432,57.58030185758515,25.0
1433,57.88022445820434,25.0
1434,58.77515479876161,25.0
1435,60.090944272445824,25.0
1436,52.82023993808049,25.0
1437,55.51954334365327,25.0
1438,58.57681888544891,25.0
1439,59.42821207430341,25.0
1440,56.26934984520124,25.0
1441,54.39725232198141,25.0
1442,57.222329721362236,25.0
1443,56.312886996904034,25.0
1444,55.48084365325077,25.0
1445,58.533281733746136,25.0
1446,53.797407120743024,25.0
1447,58.15112229102167,25.0
1448,58.8235294117647,25.0
1449,55.877515479876166,25.0
1450,56.453173374613016,25.0
1451,54.57623839009288,25.0
1452,58.243034055727556,25.0
1453,56.43382352941176,25.0
1454,56.845007739938076,25.0
1455,56.748258513931894,25.0
1456,55.1905959752322,25.0
1457,55.97910216718266,25.0
1458,53.56037151702785,25.0
1459,57.72058823529412,25.0
1460,55.746904024767794,25.0
1461,55.34539473684211,25.0
1462,55.988777089783284,25.0
1463,57.49322755417957,25.0
1464,57.710913312693506,25.0
1465,53.14434984520125,25.0
1466,55.97426470588236,25.0
1467,60.105456656346746,25.0
1468,52.8734520123839,25.0
1469,57.10139318885449,25.0
1470,53.54585913312693,25.0
1471,54.861648606811144,25.0
1472,61.09713622291022,25.0
1473,55.65499226006191,25.0
1474,56.71923374613002,25.0
1475,56.45801083591331,25.0
1476,54.24245356037152,25.0
1477,57.45452786377709,25.0
1478,61.14551083591332,25.0
1479,53.86029411764706,25.0
1480,57.551277089783284,25.0
1481,55.89686532507739,25.0
1482,58.54295665634674,25.0
1483,54.61493808049536,25.0
1484,54.06346749226007,25.0
1485,56.143575851393194,25.0
1486,57.49322755417956,25.0
1487,58.12693498452012,25.0
1488,58.41718266253869,25.0
1489,52.92666408668731,25.0
1490,57.77380030959752,25.0
1491,57.63351393188855,25.0
1492,50.45955882352941,25.0
1493,54.94872291021672,25.0
1494,56.35158668730651,25.0
1495,59.90712074303405,25.0
1496,55.906540247678016,25.0
1497,55.084171826625386,25.0
1498,49.30340557275541,25.0
1499,58.663893188854495,25.0
1500,56.38544891640867,25.0
1501,57.61416408668731,25.0
1502,53.94736842105264,25.0
1503,59.61687306501547,25.0
1504,54.47465170278638,25.0
1505,56.33223684210526,25.0
1506,58.494582043343655,25.0
1507,55.084171826625386,25.0
1508,58.494582043343655,25.0
1509,58.36397058823529,25.0
1510,57.78831269349845,25.0
1511,59.36048761609908,25.0
1512,56.5499226006192,25.0
1513,61.45510835913311,25.0
1514,57.77380030959754,25.0
1515,55.10352167182663,25.0
1516,58.66873065015481,25.0
1517,59.95065789473684,25.0
1518,56.21130030959754,25.0
1519,57.851199690402474,25.0
1520,56.177438080495364,25.0
1521,55.25832043343653,25.0
1522,54.6875,25.0
1523,55.90654024767801,25.0
1524,54.24729102167182,25.0
1525,60.11513157894737,25.0
1526,59.74264705882352,25.0
1527,59.0702399380805,25.0
1528,52.70414086687306,25.0
1529,61.39222136222911,25.0
1530,56.341911764705884,25.0
1531,55.51954334365326,25.0
1532,54.27147832817337,25.0
1533,56.11455108359134,25.0
1534,52.80089009287925,25.0
1535,54.68266253869969,25.0
1536,60.10061919504645,25.0
1537,59.34113777089783,25.0
1538,53.97639318885449,25.0
1539,54.334365325077385,25.0
1540,57.94794891640867,25.0
1541,52.38486842105263,25.0
1542,56.56927244582043,25.0
1543,52.82023993808049,25.0
1544,54.910023219814235,25.0
1545,54.70684984520124,25.0
1546,57.202979876161,25.0
1547,55.41311919504645,25.0
1548,52.999226006191954,25.0
1549,57.22232972136223,25.0
1550,55.137383900928796,25.0
1551,55.69369195046439,25.0
1552,55.11319659442725,25.0
1553,56.19195046439629,25.0
1554,54.95356037151703,25.0
1555,58.799342105263165,25.0
1556,50.391834365325074,25.0
1557,57.15460526315789,25.0
1558,53.6764705882353,25.0
1559,56.68053405572755,25.0
1560,58.02051083591331,25.0
1561,54.885835913312704,25.0
1562,55.08417182662539,25.0
1563,55.36958204334364,25.0
1564,61.9485294117647,25.0
1565,56.19678792569659,25.0
1566,54.26664086687306,25.0
1567,57.67705108359133,25.0
1568,59.26373839009288,25.0
1569,58.79934210526316,25.0
1570,57.53192724458205,25.0
1571,52.62674148606811,25.0
1572,58.199496904024755,25.0
1573,56.564434984520126,25.0
1574,53.09597523219814,25.0
1575,55.87267801857586,25.0
1576,51.01586687306502,25.0
1577,54.692337461300305,25.0
1578,55.567917956656345,25.0
1579,56.283862229102176,25.0
1580,62.08881578947369,25.0
1581,58.2140092879257,25.0
1582,57.25135448916408,25.0
1583,59.76683436532509,25.0
1584,54.87132352941176,25.0
1585,52.00270897832818,25.0
1586,57.04818111455108,25.0
1587,53.299148606811144,25.0
1588,57.02399380804953,25.0
1589,58.489744582043336,25.0
1590,57.29005417956655,25.0
1591,54.01509287925696,25.0
1592,56.999806501547994,25.0
1593,56.714396284829725,25.0
1594,53.59423374613003,25.0
1595,51.9736842105263,25.0
1596,57.69640092879257,25.0
1597,58.489744582043336,25.0
1598,55.7469040247678,25.0
1599,54.15054179566564,25.0
1600,56.728908668730654,25.0
1601,55.6936919504644,25.0
1602,55.2438080495356,25.0
1603,59.133126934984524,25.0
1604,56.38061145510836,25.0
1605,58.91060371517027,25.0
1606,55.21478328173375,25.0
1607,60.66660216718266,25.0
1608,54.247291021671835,25.0
1609,57.56578947368422,25.0
1610,60.28444272445821,25.0
1611,54.41176470588235,25.0
1612,60.148993808049525,25.0
1613,57.82217492260062,25.0
1614,58.68324303405573,25.0
1615,50.09674922600619,25.0
1616,54.40692724458205,25.0
1617,48.24400154798761,25.0
1618,56.791795665634666,25.0
1619,57.120743034055714,25.0
1620,55.800116099071204,25.0
1621,55.71304179566564,25.0
1622,55.20994582043345,25.0
1623,58.891253869969034,25.0
1624,54.039280185758514,25.0
1625,56.27902476780185,25.0
1626,56.419311145510825,25.0
1627,57.822174922600624,25.0
1628,56.36126160990712,25.0
1629,53.31366099071207,25.0
1630,54.81811145510836,25.0
1631,57.19814241486068,25.0
1632,56.26934984520125,25.0
1633,57.31424148606811,25.0
1634,56.50638544891641,25.0
1635,59.795859133126946,25.0
1636,54.25212848297213,25.0
1637,58.54779411764706,25.0
1638,54.697174922600624,25.0
1639,51.131965944272444,25.0
1640,54.83746130030959,25.0
1641,58.05921052631578,25.0
1642,57.3045665634675,25.0
1643,52.26876934984519,25.0
1644,57.47871517027863,25.0
1645,57.0046439628483,25.0
1646,55.05998452012383,25.0
1647,56.912732198142415,25.0
1648,57.18846749226007,25.0
1649,58.422020123839005,25.0
1650,56.22097523219814,25.0
1651,53.028250773993804,25.0
1652,60.5359907120743,25.0
1653,56.071013931888544,25.0
1654,53.444272445820445,25.0
1655,58.17530959752322,25.0
1656,59.11861455108359,25.0
1657,55.41795665634675,25.0
1658,54.72136222910217,25.0
1659,61.440595975232206,25.0
1660,58.25754643962848,25.0
1661,58.23335913312694,25.0
1662,57.51741486068111,25.0
1663,54.494001547987615,25.0
1664,60.14415634674922,25.0
1665,53.221749226006196,25.0
1666,54.17956656346748,25.0
1667,61.05359907120743,25.0
1668,56.5015479876161,25.0
1669,58.35429566563467,25.0
1670,57.99148606811145,25.0
1671,58.06888544891641,25.0
1672,56.888544891640855,25.0
1673,56.87403250773994,25.0
1674,55.529218266253864,25.0
1675,59.37499999999999,25.0
1676,56.540247678018574,25.0
1677,56.07101393188855,25.0
1678,50.60952012383901,25.0
1679,58.19465944272446,25.0
1680,52.03173374613002,25.0
1681,58.944465944272444,25.0
1682,55.72755417956657,25.0
1683,59.2250386996904,25.0
1684,58.721942724458195,25.0
1685,52.002708978328165,25.0
1686,55.180921052631575,25.0
1687,52.09462074303406,25.0
1688,60.41989164086687,25.0
1689,57.77863777089784,25.0
1690,56.82082043343652,25.0
1691,57.94311145510836,25.0
1692,58.8235294117647,25.0
1693,56.34191176470589,25.0
1694,57.24651702786378,25.0
1695,59.71362229102167,25.0
1696,59.85874613003096,25.0
1697,54.595588235294116,25.0
1698,59.44272445820433,25.0
1699,57.92859907120743,25.0
1700,56.27418730650154,25.0
1701,59.66524767801858,25.0
1702,56.76760835913312,25.0
1703,62.03560371517028,25.0
1704,57.575464396284836,25.0
1705,59.04605263157893,25.0
1706,56.41931114551084,25.0
1707,57.68672600619195,25.0
1708,62.98858359133126,25.0
1709,57.97697368421052,25.0
1710,60.85526315789473,25.0
1711,56.56927244582043,25.0
1712,55.50986842105264,25.0
1713,57.01915634674922,25.0
1714,55.72755417956656,25.0
1715,54.445626934984524,25.0
1716,58.47039473684212,25.0
1717,56.071013931888544,25.0
1718,56.090363777089784,25.0
1719,52.65092879256966,25.0
1720,58.22852167182663,25.0
1721,54.1360294117647,25.0
1722,55.20994582043345,25.0
1723,58.480069659442734,25.0
1724,56.05166408668731,25.0
1725,57.42550309597523,25.0
1726,55.601780185758514,25.0
1727,59.215363777089784,25.0
1728,55.48084365325077,25.0
1729,57.40615325077399,25.0
1730,56.090363777089784,25.0
1731,56.777283281733745,25.0
1732,58.2672213622291,25.0
1733,56.245162538699695,25.0
1734,57.27554179566563,25.0
1735,54.256965944272444,25.0
1736,60.46342879256966,25.0
1737,57.362616099071204,25.0
1738,57.048181114551085,25.0
1739,55.529218266253864,25.0
1740,59.14763931888545,25.0
1741,57.35777863777089,25.0
1742,55.887190402476776,25.0
1743,55.11803405572756,25.0
1744,54.75522445820434,25.0
1745,56.02747678018576,25.0
1746,58.81385448916407,25.0
1747,56.03231424148607,25.0
1748,55.79044117647058,25.0
1749,55.369582043343655,25.0
1750,58.726780185758514,25.0
1751,59.69427244582044,25.0
1752,55.640479876161,25.0
1753,54.276315789473685,25.0
1754,54.21826625386997,25.0
1755,53.50715944272446,25.0
1756,60.49729102167184,25.0
1757,57.82217492260062,25.0
1758,58.296246130030966,25.0
1759,57.13525541795666,25.0
1760,57.972136222910216,25.0
1761,56.777283281733745,25.0
1762,55.28734520123839,25.0
1763,55.238970588235304,25.0
1764,53.57488390092879,25.0
1765,57.551277089783284,25.0
1766,56.04682662538699,25.0
1767,55.7952786377709,25.0
1768,55.42763157894736,25.0
1769,63.4578173374613,25.0
1770,55.28250773993808,25.0
1771,56.38061145510836,25.0
1772,50.97232972136223,25.0
1773,57.8657120743034,25.0
1774,54.87132352941176,25.0
1775,57.522252321981426,25.0
1776,52.60255417956656,25.0
1777,62.77089783281734,25.0
1778,58.6203560371517,25.0
1779,53.047600619195045,25.0
1780,59.471749226006196,25.0
1781,55.398606811145505,25.0
1782,55.28250773993809,25.0
1783,58.36397058823529,25.0
1784,57.27554179566564,25.0
1785,57.45936532507739,25.0
1786,53.95220588235294,25.0
1787,58.17530959752322,25.0
1788,55.408281733746136,25.0
1789,52.36068111455108,25.0
1790,51.91079721362229,25.0
1791,53.80224458204334,25.0
1792,54.208591331269346,25.0
1793,54.91969814241486,25.0
1794,58.15595975232198,25.0
1795,62.25328947368422,25.0
1796,54.890673374612994,25.0
1797,55.80495356037151,25.0
1798,52.384868421052644,25.0
1799,57.6625386996904,25.0
1800,58.697755417956664,25.0
1801,57.1062306501548,25.0
1802,55.82914086687307,25.0
1803,52.5203173374613,25.0
1804,50.846555727554176,25.0
1805,53.942530959752325,25.0
1806,55.41795665634675,25.0
1807,55.80979102167183,25.0
1808,52.442917956656345,25.0
1809,56.6515092879257,25.0
1810,56.158088235294116,25.0
1811,56.89338235294117,25.0
1812,55.2921826625387,25.0
1813,53.154024767801864,25.0
1814,56.375773993808046,25.0
1815,55.843653250774,25.0
1816,56.21130030959753,25.0
1817,59.20568885448916,25.0
1818,55.219620743034056,25.0
1819,54.387577399380795,25.0
1820,56.57894736842106,25.0
1821,58.2672213622291,25.0
1822,55.31153250773994,25.0
1823,55.82914086687306,25.0
1824,56.578947368421055,25.0
1825,60.0812693498452,25.0
1826,57.29972910216719,25.0
1827,56.43382352941177,25.0
1828,60.24574303405572,25.0
1829,55.137383900928796,25.0
1830,55.480843653250766,25.0
1831,58.567143962848306,25.0
1832,61.15518575851394,25.0
1833,56.53057275541795,25.0
1834,59.283088235294116,25.0
1835,57.24651702786378,25.0
1836,58.87674148606811,25.0
1837,57.425503095975216,25.0
1838,55.606617647058826,25.0
1839,55.4953560371517,25.0
1840,54.96807275541796,25.0
1841,59.90712074303405,25.0
1842,60.43440402476781,25.0
1843,60.81656346749225,25.0
1844,56.936919504643974,25.0
1845,52.09945820433436,25.0
1846,55.95975232198142,25.0
1847,59.53463622291022,25.0
1848,58.09307275541796,25.0
1849,58.141447368421055,25.0
1850,53.58455882352941,25.0
1851,56.12422600619195,25.0
1852,57.1546052631579,25.0
1853,58.86706656346749,25.0
1854,55.10835913312694,25.0
1855,59.53947368421053,25.0
1856,57.74477554179567,25.0
1857,58.02534829721362,25.0
1858,57.406153250774,25.0
1859,56.49187306501547,25.0
1860,57.739938080495364,25.0
1861,55.751741486068106,25.0
1862,57.972136222910216,25.0
1863,58.2672213622291,25.0
1864,58.45104489164087,25.0
1865,57.48355263157895,25.0
1866,62.41292569659442,25.0
1867,54.85197368421051,25.0
1868,54.52302631578948,25.0
1869,55.59694272445821,25.0
1870,54.943885448916404,25.0
1871,56.351586687306494,25.0
1872,58.65421826625388,25.0
1873,55.306695046439636,25.0
1874,58.63003095975233,25.0
1875,55.39860681114551,25.0
1876,52.52515479876161,25.0
1877,54.51335139318885,25.0
1878,58.7703173374613,25.0
1879,54.527863777089784,25.0
1880,59.196013931888544,25.0
1881,57.952786377708975,25.0
1882,56.975619195046434,25.0
1883,59.3217879256966,25.0
1884,57.99148606811145,25.0
1885,58.95897832817337,25.0
1886,58.4655572755418,25.0
1887,53.599071207430335,25.0
1888,51.77534829721362,25.0
1889,54.80843653250774,25.0
1890,56.00812693498452,25.0
1891,55.18092105263158,25.0
1892,56.43382352941177,25.0
1893,57.25135448916408,25.0
1894,59.95065789473684,25.0
1895,59.44756191950464,25.0
1896,57.18846749226007,25.0
1897,58.38815789473684,25.0
1898,51.799535603715164,25.0
1899,55.684017027863774,25.0
1900,58.24787151702787,25.0
1901,58.34945820433437,25.0
1902,58.305921052631575,25.0
1903,51.89628482972136,25.0
1904,52.375193498452006,25.0
1905,55.26799535603715,25.0
1906,54.56656346749226,25.0
1907,57.957623839009294,25.0
1908,55.02612229102167,25.0
1909,59.03154024767802,25.0
1910,59.23955108359133,25.0
1911,53.56037151702787,25.0
1912,56.58378482972137,25.0
1913,52.82991486068111,25.0
1914,55.43730650154799,25.0
1915,58.678405572755416,25.0
1916,57.63835139318886,25.0
1917,54.484326625387,25.0
1918,58.422020123839,25.0
1919,54.82294891640868,25.0
1920,54.63428792569659,25.0
1921,49.54044117647057,25.0
1922,53.48297213622291,25.0
1923,53.7296826625387,25.0
1924,60.05708204334365,25.0
1925,57.86087461300309,25.0
1926,60.87461300309598,25.0
1927,57.23200464396285,25.0
1928,57.65770123839008,25.0
1929,58.33010835913313,25.0
1930,53.37171052631579,25.0
1931,56.680534055727556,25.0
1932,59.48626160990712,25.0
1933,52.91698916408669,25.0
1934,51.18517801857586,25.0
1935,56.30804953560371,25.0
1936,54.98742260061919,25.0
1937,53.73935758513932,25.0
1938,57.551277089783284,25.0
1939,56.09036377708977,25.0
1940,55.79044117647059,25.0
1941,55.67434210526316,25.0
1942,57.86571207430341,25.0
1943,59.56366099071208,25.0
1944,56.293537151702786,25.0
1945,58.13177244582044,25.0
1946,57.43034055727554,25.0
1947,56.42414860681114,25.0
1948,55.91137770897833,25.0
1949,60.371517027863774,25.0
1950,54.82778637770897,25.0
1951,58.43653250773993,25.0
1952,57.87538699690402,25.0
1953,54.71652476780187,25.0
1954,55.32120743034056,25.0
1955,56.66602167182663,25.0
1956,54.09249226006192,25.0
1957,56.23548761609908,25.0
1958,52.50580495356037,25.0
1959,53.487809597523224,25.0
1960,58.18982198142415,25.0
1961,60.19736842105263,25.0
1962,56.308049535603715,25.0
1963,55.45665634674923,25.0
1964,52.23006965944273,25.0
1965,52.060758513931894,25.0
1966,56.37577399380805,25.0
1967,53.02825077399381,25.0
1968,57.45936532507739,25.0
1969,58.262383900928796,25.0
1970,54.315015479876166,25.0
1971,53.768382352941174,25.0
1972,55.75174148606811,25.0
1973,57.1062306501548,25.0
1974,56.293537151702786,25.0
1975,55.47600619195046,25.0
1976,57.556114551083596,25.0
1977,57.435178018575854,25.0
1978,59.27341331269349,25.0
1979,58.721942724458195,25.0
1980,54.56172600619195,25.0
1981,62.64028637770898,25.0
1982,58.538119195046434,25.0
1983,53.59423374613003,25.0
1984,53.64744582043344,25.0
1985,54.24729102167183,25.0
1986,55.40828173374613,25.0
1987,57.54643962848297,25.0
1988,62.3500386996904,25.0
1989,58.18982198142414,25.0
1990,57.270704334365334,25.0
1991,58.63003095975232,25.0
1992,56.20646284829721,25.0
1993,57.60448916408669,25.0
1994,55.030959752321984,25.0
1995,58.09307275541795,25.0
1996,60.48761609907121,25.0
1997,56.63215944272446,25.0
1998,58.44620743034056,25.0
1999,54.11184210526317,25.0
2000,59.645897832817354,25.0
2001,61.687306501547994,25.0
2002,55.60661764705883,25.0
2003,54.213428792569665,25.0
2004,54.01993034055727,25.0
2005,60.265092879256976,25.0
2006,61.16486068111455,25.0
2007,54.19407894736842,25.0
2008,57.14009287925697,25.0
2009,55.12287151702787,25.0
2010,59.04121517027864,25.0
2011,59.99419504643963,25.0
2012,51.92530959752322,25.0
2013,56.796633126934985,25.0
2014,53.19272445820433,25.0
2015,58.22852167182663,25.0
2016,57.715750773993804,25.0
2017,58.325270897832816,25.0
2018,58.48006965944273,25.0
2019,55.872678018575854,25.0
2020,54.25212848297213,25.0
2021,55.8484907120743,25.0
2022,58.765479876160995,25.0
2023,58.05921052631578,25.0
2024,59.55882352941176,25.0
2025,56.26934984520124,25.0
2026,56.66602167182663,25.0
2027,55.42279411764706,25.0
2028,55.82914086687306,25.0
2029,59.34113777089784,25.0
2030,55.824303405572756,25.0
2031,54.01993034055727,25.0
2032,57.90924922600619,25.0
2033,57.570626934984524,25.0
2034,59.03154024767802,25.0
2035,54.24245356037152,25.0
2036,57.79315015479875,25.0
2037,53.89899380804954,25.0
2038,52.950851393188856,25.0
2039,57.25135448916407,25.0
2040,54.508513931888544,25.0
2041,59.25890092879256,25.0
2042,54.63912538699691,25.0
2043,59.47174922600619,25.0
2044,59.50077399380805,25.0
2045,57.52225232198142,25.0
2046,57.82701238390092,25.0
2047,56.564434984520126,25.0
2048,54.024767801857585,25.0
2049,55.97910216718266,25.0
2050,54.411764705882355,25.0
2051,56.59829721362229,25.0
2052,56.666021671826634,25.0
2053,59.007352941176464,25.0
2054,56.980456656346746,25.0
2055,54.900348297213625,25.0
2056,56.8014705882353,25.0
2057,56.52089783281733,25.0
2058,55.9452399380805,25.0
2059,54.40208978328174,25.0
2060,55.70336687306502,25.0
2061,58.596168730650156,25.0
2062,55.505030959752325,25.0
2063,57.89957430340558,25.0
2064,58.61551857585139,25.0
2065,51.0061919504644,25.0
2066,58.929953560371516,25.0
2067,56.51122291021673,25.0
2068,59.4765866873065,25.0
2069,58.5671439628483,25.0
2070,51.78018575851393,25.0
2071,58.76547987616099,25.0
2072,57.74961300309597,25.0
2073,55.7952786377709,25.0
2074,58.833204334365334,25.0
2075,56.73858359133128,25.0
2076,53.163699690402474,25.0
2077,55.54856811145511,25.0
2078,54.68266253869969,25.0
2079,55.171246130030966,25.0
2080,53.79740712074303,25.0
2081,58.175309597523224,25.0
2082,58.446207430340564,25.0
2083,56.51606037151703,25.0
2084,57.73026315789474,25.0
2085,52.89763931888544,25.0
2086,57.39647832817337,25.0
2087,60.158668730650156,25.0
2088,56.559597523219814,25.0
2089,54.36822755417956,25.0
2090,53.49748452012383,25.0
2091,58.77999226006192,25.0
2092,59.71362229102167,25.0
2093,57.265866873065015,25.0
2094,56.31288699690403,25.0
2095,62.08881578947369,25.0
2096,62.97407120743033,25.0
2097,57.41582817337462,25.0
2098,55.02612229102167,25.0
2099,55.15673374613002,25.0
2100,58.29140866873065,25.0
2101,58.838041795665625,25.0
2102,55.65015479876162,25.0
2103,56.458010835913306,25.0
2104,55.15189628482972,25.0
2105,53.94736842105264,25.0
2106,50.17414860681114,25.0
2107,52.91698916408669,25.0
2108,53.27012383900929,25.0
2109,59.2250386996904,25.0
2110,58.63486842105264,25.0
2111,56.782120743034056,25.0
2112,53.33301083591331,25.0
2113,56.68053405572756,25.0
2114,58.21884674922601,25.0
2115,57.51741486068111,25.0
2116,56.999806501547994,25.0
2117,58.020510835913306,25.0
2118,58.088235294117645,25.0
2119,53.202399380804955,25.0
2120,54.914860681114554,25.0
2121,58.05921052631578,25.0
2122,58.35429566563468,25.0
2123,60.255417956656345,25.0
2124,58.54295665634675,25.0
2125,56.09036377708978,25.0
2126,57.981811145510825,25.0
2127,53.76354489164087,25.0
2128,58.03502321981424,25.0
2129,56.153250773993804,25.0
2130,56.93691950464397,25.0
2131,57.0094814241486,25.0
2132,60.84075077399381,25.0
2133,58.26722136222911,25.0
2134,56.627321981424146,25.0
2135,58.28657120743034,25.0
2136,56.3999613003096,25.0
2137,54.57623839009289,25.0
2138,53.25077399380804,25.0
2139,53.686145510835914,25.0
2140,53.03308823529411,25.0
2141,57.918924148606806,25.0
2142,56.79179566563467,25.0
2143,59.52012383900929,25.0
2144,56.051664086687296,25.0
2145,56.36609907120743,25.0
2146,54.590750773993804,25.0
2147,54.70684984520124,25.0
2148,54.65847523219814,25.0
2149,56.34191176470588,25.0
2150,55.39860681114551,25.0
2151,59.084752321981426,25.0
2152,56.28386222910217,25.0
2153,55.84365325077399,25.0
2154,55.2921826625387,25.0
2155,57.899574303405586,25.0
2156,52.73800309597523,25.0
2157,55.9984520123839,25.0
2158,57.401315789473685,25.0
2159,58.70743034055727,25.0
2160,57.299729102167184,25.0
2161,59.03637770897832,25.0
2162,52.01238390092879,25.0
2163,54.87132352941176,25.0
2164,55.85816563467492,25.0
2165,58.881578947368425,25.0
2166,56.63215944272445,25.0
2167,58.23819659442725,25.0
2168,56.90789473684211,25.0
2169,59.09442724458204,25.0
2170,56.84017027863777,25.0
2171,58.35429566563467,25.0
2172,55.974264705882355,25.0
2173,55.688854489164086,25.0
2174,57.2610294117647,25.0
2175,61.25677244582043,25.0
2176,60.255417956656345,25.0
2177,57.648026315789465,25.0
2178,59.205688854489175,25.0
2179,58.45588235294116,25.0
2180,56.19195046439628,25.0
2181,57.19330495356037,25.0
2182,57.92859907120743,25.0
2183,56.86919504643963,25.0
2184,59.868421052631575,25.0
2185,59.17182662538699,25.0
2186,54.8858359133127,25.0
2187,60.052244582043336,25.0
2188,54.0344427244582,25.0
2189,59.61203560371517,25.0
2190,58.61551857585139,25.0
2191,55.84849071207431,25.0
2192,59.171826625387006,25.0
2193,60.966524767801864,25.0
2194,60.88428792569659,25.0
2195,55.843653250774,25.0
2196,59.40886222910216,25.0
2197,56.56927244582044,25.0
2198,56.28386222910217,25.0
2199,56.34674922600619,25.0
2200,55.137383900928796,25.0
2201,53.8312693498452,25.0
2202,55.113196594427244,25.0
2203,54.06830495356037,25.0
2204,57.604489164086694,25.0
2205,56.66602167182663,25.0
2206,54.59558823529411,25.0
2207,53.17337461300309,25.0
2208,56.540247678018574,25.0
2209,58.562306501547994,25.0
2210,55.248645510835914,25.0
2211,55.48568111455108,25.0
2212,57.59481424148607,25.0
2213,54.94388544891641,25.0
2214,54.68749999999999,25.0
2215,61.247097523219814,25.0
2216,56.24999999999999,25.0
2217,57.31907894736842,25.0
2218,59.12828947368422,25.0
2219,57.082043343653254,25.0
2220,54.48432662538699,25.0
2221,61.300309597523224,25.0
2222,59.00735294117647,25.0
2223,55.32604489164087,25.0
2224,57.09171826625388,25.0
2225,55.12287151702786,25.0
2226,59.0170278637771,25.0
2227,55.553405572755416,25.0
2228,57.75445046439629,25.0
2229,58.107585139318886,25.0
2230,54.82294891640866,25.0
2231,59.23955108359134,25.0
2232,54.9922600619195,25.0
2233,60.908475232198136,25.0
2234,53.081462848297214,25.0
2235,56.424148606811144,25.0
2236,58.82836687306502,25.0
2237,55.99845201238391,25.0
2238,55.82914086687306,25.0
2239,59.06056501547987,25.0
2240,54.13602941176471,25.0
2241,57.565789473684205,25.0
2242,54.42143962848297,25.0
2243,64.94775541795666,25.0
2244,58.38332043343654,25.0
2245,59.312113003095966,25.0
2246,59.529798761609904,25.0
2247,59.15247678018576,25.0
2248,55.413119195046434,25.0
2249,58.79934210526315,25.0
2250,56.02263931888545,25.0
2251,57.72058823529412,25.0
2252,55.5437306501548,25.0
2253,58.19949690402478,25.0
2254,56.68537151702787,25.0
2255,62.258126934984524,25.0
2256,56.32256191950464,25.0
2257,56.00812693498452,25.0
2258,62.62093653250775,25.0
2259,56.86435758513932,25.0
2260,56.424148606811144,25.0
2261,56.55959752321982,25.0
2262,60.192530959752325,25.0
2263,56.31772445820434,25.0
2264,56.07585139318885,25.0
2265,57.096555727554176,25.0
2266,61.73084365325079,25.0
2267,60.71013931888545,25.0
2268,53.01857585139319,25.0
2269,53.855456656346746,25.0
2270,54.30534055727554,25.0
2271,54.382739938080505,25.0
2272,58.407507739938076,25.0
2273,57.6044891640867,25.0
2274,58.126934984520126,25.0
2275,57.3577786377709,25.0
2276,55.2438080495356,25.0
2277,60.51664086687306,25.0
2278,59.631385448916404,25.0
2279,56.782120743034056,25.0
2280,54.79876160990712,25.0
2281,56.05166408668731,25.0
2282,53.71033281733747,25.0
2283,55.369582043343655,25.0
2284,58.08339783281735,25.0
2285,56.10487616099072,25.0
2286,59.002515479876166,25.0
2287,54.5375386996904,25.0
2288,55.15189628482971,25.0
2289,56.41447368421053,25.0
2290,61.63893188854489,25.0
2291,53.57972136222911,25.0
2292,55.640479876160995,25.0
2293,54.89551083591331,25.0
2294,53.88448142414861,25.0
2295,60.22639318885449,25.0
2296,54.256965944272444,25.0
2297,53.869969040247675,25.0
2298,58.16079721362229,25.0
2299,54.247291021671835,25.0
2300,54.997097523219814,25.0
2301,57.130417956656345,25.0
2302,55.91137770897832,25.0
2303,54.261803405572756,25.0
2304,59.418537151702786,25.0
2305,57.25619195046439,25.0
2306,60.02321981424149,25.0
2307,56.57410990712074,25.0
2308,54.66815015479876,25.0
2309,58.38332043343654,25.0
2310,59.849071207430335,25.0
2311,57.93827399380805,25.0
2312,59.25406346749226,25.0
2313,57.61900154798761,25.0
2314,56.757933436532504,25.0
2315,56.994969040247675,25.0
2316,53.38622291021672,25.0
2317,56.375773993808046,25.0
2318,51.6108746130031,25.0
2319,50.130611455108365,25.0
2320,61.12616099071207,25.0
2321,55.58726780185758,25.0
2322,59.83939628482972,25.0
2323,59.18150154798761,25.0
2324,57.71575077399381,25.0
2325,57.58030185758514,25.0
2326,55.8484907120743,25.0
2327,58.296246130030966,25.0
2328,56.51122291021671,25.0
2329,53.086300309597526,25.0
2330,59.46691176470589,25.0
2331,60.88428792569659,25.0
2332,59.15731424148606,25.0
2333,58.47039473684211,25.0
2334,60.10061919504644,25.0
2335,56.23065015479875,25.0
2336,57.01915634674923,25.0
2337,59.10410216718267,25.0
2338,53.44427244582043,25.0
2339,60.52147832817338,25.0
2340,54.716524767801864,25.0
2341,59.79585913312694,25.0
2342,58.455882352941174,25.0
2343,54.61010061919504,25.0
2344,55.08417182662539,25.0
2345,54.813273993808046,25.0
2346,58.0640479876161,25.0
2347,56.18711300309597,25.0
2348,56.40963622291022,25.0
2349,60.99071207430341,25.0
2350,55.23413312693498,25.0
2351,60.49245356037152,25.0
2352,58.18014705882353,25.0
2353,55.514705882352935,25.0
2354,56.728908668730654,25.0
2355,55.843653250774,25.0
2356,54.547213622291025,25.0
2357,57.26586687306502,25.0
2358,57.009481424148596,25.0
2359,57.31907894736842,25.0
2360,60.24574303405572,25.0
2361,56.8014705882353,25.0
2362,56.206462848297214,25.0
2363,57.517414860681114,25.0
2364,52.476780185758514,25.0
2365,63.23045665634677,25.0
2366,56.76277089783282,25.0
2367,57.285216718266255,25.0
2368,56.796633126934985,25.0
2369,57.79315015479875,25.0
2370,60.63273993808049,25.0
2371,59.181501547987615,25.0
2372,58.03502321981425,25.0
2373,55.86300309597524,25.0
2374,58.862229102167184,25.0
2375,57.57062693498453,25.0
2376,57.76896284829722,25.0
2377,55.07933436532509,25.0
2378,57.556114551083596,25.0
2379,59.41369969040248,25.0
2380,56.16292569659442,25.0
2381,54.85681114551084,25.0
2382,55.82914086687306,25.0
2383,57.69156346749225,25.0
2384,58.56230650154799,25.0
2385,56.6515092879257,25.0
2386,58.088235294117645,25.0
2387,57.720588235294116,25.0
2388,58.57681888544892,25.0
2389,57.00948142414861,25.0
2390,52.6702786377709,25.0
2391,55.147058823529406,25.0
2392,56.206462848297214,25.0
2393,55.567917956656345,25.0
2394,56.19678792569658,25.0
2395,58.79450464396285,25.0
2396,52.341331269349844,25.0
2397,54.50851393188855,25.0
2398,54.31501547987616,25.0
2399,57.140092879256976,25.0
2400,56.211300309597526,25.0
2401,57.87054953560371,25.0
2402,57.35294117647058,25.0
2403,59.96517027863778,25.0
2404,55.316369969040245,25.0
2405,57.24651702786378,25.0
2406,53.96671826625387,25.0
2407,53.79256965944273,25.0
2408,58.70743034055727,25.0
2409,58.12209752321981,25.0
2410,56.02747678018576,25.0
2411,58.30108359133128,25.0
2412,54.7890866873065,25.0
2413,51.702786377708975,25.0
2414,58.2672213622291,25.0
2415,54.092492260061924,25.0
2416,55.70820433436532,25.0
2417,59.27825077399382,25.0
2418,54.11667956656347,25.0
2419,57.94311145510836,25.0
2420,57.74961300309598,25.0
2421,58.05921052631578,25.0
2422,55.56308049535603,25.0
2423,51.59152476780186,25.0
2424,54.77457430340558,25.0
2425,54.88583591331269,25.0
2426,60.463428792569644,25.0
2427,52.49129256965944,25.0
2428,57.03850619195046,25.0
2429,54.982585139318886,25.0
2430,54.37306501547988,25.0
2431,55.267995356037154,25.0
2432,57.43517801857585,25.0
2433,58.499419504643974,25.0
2434,54.237616099071204,25.0
2435,62.73219814241485,25.0
2436,57.473877708978335,25.0
2437,57.48355263157895,25.0
2438,58.088235294117645,25.0
2439,56.51606037151703,25.0
2440,56.69020897832817,25.0
2441,52.75735294117647,25.0
2442,58.88157894736842,25.0
2443,53.59907120743034,25.0
2444,52.59287925696595,25.0
2445,59.43788699690403,25.0
2446,54.04895510835914,25.0
2447,59.97968266253869,25.0
2448,57.58030185758514,25.0
2449,56.61764705882352,25.0
2450,53.10565015479876,25.0
2451,56.97078173374613,25.0
2452,60.23606811145511,25.0
2453,57.60448916408669,25.0
2454,52.10429566563467,25.0
2455,56.69504643962848,25.0
2456,59.54431114551083,25.0
2457,52.97987616099072,25.0
2458,56.99980650154799,25.0
2459,57.48355263157895,25.0
2460,54.32469040247678,25.0
2461,51.90595975232198,25.0
2462,55.53405572755419,25.0
2463,55.88235294117647,25.0
2464,53.22658668730651,25.0
2465,54.140866873065015,25.0
2466,52.476780185758514,25.0
2467,56.83049535603715,25.0
2468,58.07856037151703,25.0
2469,60.003869969040245,25.0
2470,57.32391640866873,25.0
2471,54.49883900928792,25.0
2472,60.15383126934984,25.0
2473,53.879643962848306,25.0
2474,56.87403250773994,25.0
2475,59.51528637770898,25.0
2476,59.2250386996904,25.0
2477,56.109713622291025,25.0
2478,56.09036377708978,25.0
2479,59.13796439628482,25.0
2480,55.026122291021665,25.0
2481,58.37848297213622,25.0
2482,55.77109133126935,25.0
2483,53.487809597523224,25.0
2484,59.234713622291025,25.0
2485,58.54779411764705,25.0
2486,56.52089783281735,25.0
2487,57.07720588235295,25.0
2488,59.607198142414866,25.0
2489,55.30669504643963,25.0
2490,56.43382352941176,25.0
2491,54.0828173374613,25.0
2492,59.79585913312694,25.0
2493,55.40828173374614,25.0
2494,60.61822755417957,25.0
2495,59.12828947368421,25.0
2496,56.104876160990706,25.0
2497,54.745549535603715,25.0
2498,54.59075077399382,25.0
2499,56.77728328173375,25.0
2500,55.21478328173374,25.0
2501,53.88931888544892,25.0
2502,52.80089009287925,25.0
2503,53.66195820433436,25.0
2504,55.964589783281724,25.0
2505,54.57140092879257,25.0
2506,55.76141640866873,25.0
2507,53.94736842105263,25.0
2508,54.179566563467496,25.0
2509,56.477360681114554,25.0
2510,54.697174922600624,25.0
2511,59.49109907120743,25.0
2512,55.78076625386997,25.0
2513,58.00116099071208,25.0
2514,56.08552631578947,25.0
2515,56.356424148606806,25.0
2516,54.25212848297215,25.0
2517,54.54721362229102,25.0
2518,57.904411764705884,25.0
2519,55.30185758513932,25.0
2520,54.41176470588236,25.0
2521,59.71845975232198,25.0
2522,57.788312693498455,25.0
2523,58.10758513931888,25.0
2524,57.29489164086688,25.0
2525,61.029411764705884,25.0
2526,53.7780572755418,25.0
2527,57.4593653250774,25.0
2528,57.69640092879256,25.0
2529,58.359133126934985,25.0
2530,52.73800309597523,25.0
2531,56.74825851393188,25.0
2532,54.83262383900929,25.0
2533,57.52225232198142,25.0
2534,59.72813467492261,25.0
2535,54.35371517027864,25.0
2536,55.171246130030966,25.0
2537,60.48277863777089,25.0
2538,56.612809597523224,25.0
2539,53.01857585139319,25.0
2540,58.731617647058826,25.0
2541,55.534055727554176,25.0
2542,52.2203947368421,25.0
2543,56.578947368421055,25.0
2544,59.36048761609907,25.0
2545,56.73858359133127,25.0
2546,57.58997678018575,25.0
2547,54.37790247678019,25.0
2548,56.912732198142415,25.0
2549,58.5187693498452,25.0
2550,56.08068885448916,25.0
2551,55.28734520123839,25.0
2552,61.029411764705884,25.0
2553,56.975619195046434,25.0
2554,55.17124613003096,25.0
2555,56.477360681114554,25.0
2556,56.99980650154799,25.0
2557,58.243034055727556,25.0
2558,58.601006191950475,25.0
2559,56.92724458204334,25.0
2560,50.865905572755416,25.0
2561,58.542956656346746,25.0
2562,56.11938854489164,25.0
2563,55.96942724458204,25.0
2564,56.12422600619195,25.0
2565,60.337654798761605,25.0
2566,59.791021671826634,25.0
2567,55.601780185758514,25.0
2568,58.15112229102167,25.0
2569,57.47871517027863,25.0
2570,57.333591331269346,25.0
2571,55.01160990712074,25.0
2572,54.72136222910217,25.0
2573,58.368808049535595,25.0
2574,55.41795665634675,25.0
2575,60.55050309597523,25.0
2576,59.084752321981426,25.0
2577,56.72407120743034,25.0
2578,55.93556501547988,25.0
2579,58.659055727554176,25.0
2580,57.85603715170278,25.0
2581,58.70743034055727,25.0
2582,56.158088235294116,25.0
2583,57.90924922600618,25.0
2584,59.18150154798761,25.0
2585,59.21536377708977,25.0
2586,55.54856811145512,25.0
2587,59.70878482972136,25.0
2588,53.700657894736835,25.0
2589,55.65982972136222,25.0
2590,57.24167956656347,25.0
2591,57.17395510835913,25.0
2592,56.00328947368421,25.0
2593,58.11242260061919,25.0
2594,58.92027863777089,25.0
2595,53.753869969040245,25.0
2596,57.95762383900929,25.0
2597,59.59752321981424,25.0
2598,56.11938854489164,25.0
2599,56.757933436532504,25.0
2600,56.138738390092875,25.0
2601,55.06482198142414,25.0
2602,54.2859907120743,25.0
2603,56.0516640866873,25.0
2604,56.1484133126935,25.0
2605,60.018382352941174,25.0
2606,60.294117647058826,25.0
2607,56.661184210526315,25.0
2608,57.328753869969034,25.0
2609,57.62867647058823,25.0
2610,55.00193498452012,25.0
2611,56.31288699690403,25.0
2612,55.55340557275542,25.0
2613,58.95414086687307,25.0
2614,59.34597523219814,25.0
2615,57.314241486068106,25.0
2616,57.222329721362236,25.0
2617,53.23142414860681,25.0
2618,60.216718266253864,25.0
2619,54.247291021671835,25.0
2620,58.0640479876161,25.0
2621,60.60371517027864,25.0
2622,55.45665634674922,25.0
2623,59.99903250773993,25.0
2624,57.135255417956664,25.0
2625,58.088235294117645,25.0
2626,56.965944272445824,25.0
2627,56.53057275541795,25.0
2628,58.48974458204333,25.0
2629,56.60797213622291,25.0
2630,56.39512383900929,25.0
2631,57.527089783281724,25.0
2632,55.388931888544896,25.0
2633,56.056501547987615,25.0
2634,58.73645510835914,25.0
2635,61.658281733746115,25.0
2636,59.36532507739939,25.0
2637,56.30804953560372,25.0
2638,56.462848297213625,25.0
2639,53.55069659442725,25.0
2640,58.40267027863778,25.0
2641,54.79876160990712,25.0
2642,58.9202786377709,25.0
2643,60.8310758513932,25.0
2644,60.627902476780186,25.0
2645,58.33010835913313,25.0
2646,52.979876160990706,25.0
2647,56.71439628482973,25.0
2648,58.30108359133127,25.0
2649,57.19330495356037,25.0
2650,58.37848297213622,25.0
2651,53.773219814241486,25.0
2652,54.95356037151703,25.0
2653,58.23335913312694,25.0
2654,53.23626160990712,25.0
2655,58.910603715170275,25.0
2656,56.99013157894737,25.0
2657,55.65499226006192,25.0
2658,56.056501547987615,25.0
2659,54.827786377708975,25.0
2660,59.34597523219815,25.0
2661,54.16021671826626,25.0
2662,57.72542569659442,25.0
2663,57.609326625387006,25.0
2664,55.50503095975233,25.0
2665,55.17608359133127,25.0
2666,55.650154798761605,25.0
2667,55.297020123839005,25.0
2668,60.5843653250774,25.0
2669,62.06462848297213,25.0
2670,54.890673374613,25.0
2671,54.523026315789465,25.0
2672,57.09171826625387,25.0
2673,55.282507739938076,25.0
2674,62.98858359133128,25.0
2675,55.7952786377709,25.0
2676,58.702592879256954,25.0
2677,56.35642414860681,25.0
2678,59.62171052631578,25.0
2679,58.86706656346749,25.0
2680,55.906540247678016,25.0
2681,56.356424148606806,25.0
2682,55.65015479876161,25.0
2683,57.67705108359133,25.0
2684,53.51683436532508,25.0
2685,55.974264705882355,25.0
2686,57.2561919504644,25.0
2687,56.17260061919505,25.0
2688,57.89957430340558,25.0
2689,56.124226006191954,25.0
2690,59.44756191950464,25.0
2691,56.791795665634666,25.0
2692,55.800116099071204,25.0
2693,50.69175696594428,25.0
2694,56.109713622291025,25.0
2695,56.66602167182663,25.0
2696,58.122097523219814,25.0
2697,53.89415634674923,25.0
2698,57.98181114551083,25.0
2699,59.04121517027863,25.0
2700,61.634094427244584,25.0
2701,58.34462074303405,25.0
2702,59.113777089783284,25.0
2703,59.91195820433436,25.0
2704,58.397832817337466,25.0
2705,58.38815789473684,25.0
2706,57.50773993808049,25.0
2707,61.35352167182663,25.0
2708,58.25270897832817,25.0
2709,56.975619195046434,25.0
2710,56.240325077399376,25.0
2711,54.66331269349844,25.0
2712,53.202399380804955,25.0
2713,58.731617647058826,25.0
2714,59.607198142414866,25.0
2715,56.20646284829722,25.0
2716,59.28308823529412,25.0
2717,55.437306501547994,25.0
2718,55.669504643962846,25.0
2719,57.64318885448916,25.0
2720,61.909829721362215,25.0
2721,56.075851393188856,25.0
2722,56.39028637770898,25.0
2723,53.4781346749226,25.0
2724,56.109713622291025,25.0
2725,57.115905572755416,25.0
2726,55.113196594427244,25.0
2727,57.449690402476776,25.0
2728,52.2736068111455,25.0
2729,57.986648606811144,25.0
2730,57.98181114551084,25.0
2731,54.91002321981424,25.0
2732,57.54160216718266,25.0
2733,52.984713622291025,25.0
2734,55.20510835913313,25.0
2735,57.488390092879264,25.0
2736,56.88854489164087,25.0
2737,59.616873065015476,25.0
2738,56.927244582043336,25.0
2739,58.37364551083592,25.0
2740,55.630804953560364,25.0
2741,52.399380804953566,25.0
2742,60.29895510835913,25.0
2743,57.381965944272444,25.0
2744,54.85197368421052,25.0
2745,55.050309597523224,25.0
2746,58.64938080495355,25.0
2747,59.04121517027864,25.0
2748,53.4249226006192,25.0
2749,59.10410216718267,25.0
2750,57.58997678018576,25.0
2751,55.393769349845186,25.0
2752,55.97426470588235,25.0
2753,51.61087461300309,25.0
2754,55.132546439628484,25.0
2755,57.90924922600618,25.0
2756,59.04121517027864,25.0
2757,56.67085913312693,25.0
2758,59.04121517027865,25.0
2759,58.64938080495356,25.0
2760,56.58378482972137,25.0
2761,57.63351393188855,25.0
2762,55.78076625386998,25.0
2763,59.1766640866873,25.0
2764,49.64202786377709,25.0
2765,53.61358359133126,25.0
2766,53.98606811145511,25.0
2767,55.37441950464397,25.0
2768,51.72697368421053,25.0
2769,58.94446594427246,25.0
2770,61.851780185758514,25.0
2771,58.876741486068106,25.0
2772,52.70897832817337,25.0
2773,55.988777089783284,25.0
2774,57.725425696594435,25.0
2775,56.859520123839005,25.0
2776,55.877515479876166,25.0
2777,52.3655185758514,25.0
2778,58.18498452012384,25.0
2779,55.093846749226,25.0
2780,54.70201238390092,25.0
2781,55.974264705882355,25.0
2782,57.444852941176464,25.0
2783,58.20917182662538,25.0
2784,56.87886996904025,25.0
2785,55.55824303405573,25.0
2786,56.370936532507734,25.0
2787,55.91137770897833,25.0
2788,53.44910990712074,25.0
2789,58.19465944272446,25.0
2790,58.963815789473685,25.0
2791,55.664667182662534,25.0
2792,56.97561919504644,25.0
2793,55.61145510835913,25.0
2794,57.077205882352935,25.0
2795,54.50367647058823,25.0
2796,59.834558823529406,25.0
2797,55.29702012383901,25.0
2798,54.45046439628482,25.0
2799,57.56578947368421,25.0
2800,55.316369969040245,25.0
2801,58.8235294117647,25.0
2802,54.02476780185759,25.0
2803,57.633513931888544,25.0
2804,56.274187306501545,25.0
2805,55.60661764705883,25.0
2806,57.502902476780186,25.0
2807,56.55959752321982,25.0
2808,55.688854489164086,25.0
2809,57.6625386996904,25.0
2810,61.48897058823528,25.0
2811,55.28250773993808,25.0
2812,57.52225232198142,25.0
2813,57.386803405572756,25.0
2814,58.659055727554176,25.0
2815,58.25754643962848,25.0
2816,55.838815789473685,25.0
2817,57.28521671826625,25.0
2818,56.95143188854489,25.0
2819,58.50425696594427,25.0
2820,56.9611068111455,25.0
2821,54.010255417956664,25.0
2822,55.58726780185758,25.0
2823,59.22020123839008,25.0
2824,59.82972136222911,25.0
2825,57.47871517027864,25.0
2826,50.87558049535603,25.0
2827,54.368227554179555,25.0
2828,55.838815789473685,25.0
2829,54.88583591331269,25.0
2830,56.835332817337466,25.0
2831,55.77592879256966,25.0
2832,52.74284055727554,25.0
2833,54.61010061919506,25.0
2834,58.3155959752322,25.0
2835,59.834558823529406,25.0
2836,52.921826625387,25.0
2837,59.92163312693498,25.0
2838,57.49806501547988,25.0
2839,56.97561919504644,25.0
2840,51.214202786377705,25.0
2841,62.46130030959751,25.0
2842,55.9500773993808,25.0
2843,57.93343653250774,25.0
2844,58.020510835913306,25.0
2845,57.34810371517027,25.0
2846,54.75522445820433,25.0
2847,56.6515092879257,25.0
2848,59.476586687306494,25.0
2849,56.03231424148606,25.0
2850,57.909249226006196,25.0
2851,60.51664086687306,25.0
2852,53.589396284829725,25.0
2853,57.84152476780185,25.0
2854,54.721362229102155,25.0
2855,58.73161764705882,25.0
2856,54.70201238390092,25.0
2857,56.92240712074303,25.0
2858,57.7689628482972,25.0
2859,57.483552631578945,25.0
2860,58.67840557275541,25.0
2861,55.277670278637764,25.0
2862,51.194852941176464,25.0
2863,54.760061919504636,25.0
2864,57.83184984520124,25.0
2865,58.08339783281734,25.0
2866,58.00116099071208,25.0
2867,55.93072755417957,25.0
2868,56.3999613003096,25.0
2869,53.03792569659443,25.0
2870,53.85545665634675,25.0
2871,51.01586687306502,25.0
2872,53.59423374613003,25.0
2873,57.362616099071204,25.0
2874,58.68808049535605,25.0
2875,54.16505417956655,25.0
2876,60.23606811145511,25.0
2877,54.9874226006192,25.0
2878,56.54508513931888,25.0
2879,54.61010061919505,25.0
2880,55.49051857585139,25.0
2881,60.966524767801864,25.0
2882,58.09791021671827,25.0
2883,55.20994582043344,25.0
2884,54.276315789473685,25.0
2885,59.43304953560372,25.0
2886,54.12635448916408,25.0
2887,58.4171826625387,25.0
2888,53.850619195046434,25.0
2889,59.49593653250774,25.0
2890,49.91776315789474,25.0
2891,59.33630030959753,25.0
2892,55.23897058823529,25.0
2893,55.20510835913312,25.0
2894,51.354489164086694,25.0
2895,57.735100619195045,25.0
2896,61.547020123839005,25.0
2897,52.16718266253869,25.0
2898,56.25,25.0
2899,53.01373839009289,25.0
2900,57.609326625387,25.0
2901,60.79721362229102,25.0
2902,56.288699690402474,25.0
2903,54.9874226006192,25.0
2904,56.25967492260062,25.0
2905,56.158088235294116,25.0
2906,58.542956656346746,25.0
2907,52.96052631578948,25.0
2908,55.37441950464396,25.0
2909,56.36609907120744,25.0
2910,56.52089783281734,25.0
2911,56.119388544891635,25.0
2912,57.69640092879257,25.0
2913,56.15808823529411,25.0
2914,59.42821207430341,25.0
2915,55.205108359133135,25.0
2916,55.688854489164086,25.0
2917,56.50638544891641,25.0
2918,55.56308049535605,25.0
2919,56.84017027863777,25.0
2920,62.8531346749226,25.0
2921,58.4703947368421,25.0
2922,52.95568885448916,25.0
2923,57.52708978328173,25.0
2924,58.39783281733746,25.0
2925,63.23045665634674,25.0
2926,57.80282507739937,25.0
2927,56.43382352941176,25.0
2928,58.02534829721362,25.0
2929,58.122097523219814,25.0
2930,53.802244582043336,25.0
2931,56.03715170278638,25.0
2932,53.095975232198136,25.0
2933,56.52573529411763,25.0
2934,56.89821981424148,25.0
2935,55.24864551083592,25.0
2936,57.86087461300309,25.0
2937,53.65712074303405,25.0
2938,57.23684210526317,25.0
2939,56.59829721362229,25.0
2940,56.6031346749226,25.0
2941,59.51044891640866,25.0
2942,58.688080495356026,25.0
2943,57.8608746130031,25.0
2944,56.30321207430342,25.0
2945,58.51876934984521,25.0
2946,55.30669504643963,25.0
2947,54.21826625386997,25.0
2948,52.409055727554176,25.0
2949,56.56927244582044,25.0
2950,55.63564241486068,25.0
2951,54.460139318885446,25.0
2952,55.95491486068111,25.0
2953,55.99845201238389,25.0
2954,55.22929566563467,25.0
2955,52.68962848297213,25.0
2956,55.00193498452012,25.0
2957,54.20859133126935,25.0
2958,58.48006965944273,25.0
2959,55.48084365325078,25.0
2960,62.17105263157893,25.0
2961,57.13525541795666,25.0
2962,54.41176470588236,25.0
2963,58.23819659442726,25.0
2964,56.13390092879257,25.0
2965,53.51199690402478,25.0
2966,58.528444272445824,25.0
2967,56.453173374613,25.0
2968,58.16079721362229,25.0
2969,54.70201238390092,25.0
2970,52.984713622291025,25.0
2971,52.713815789473685,25.0
2972,57.406153250774,25.0
2973,56.714396284829725,25.0
2974,57.69156346749226,25.0
2975,59.84423374613003,25.0
2976,57.483552631578945,25.0
2977,58.692917956656345,25.0
2978,51.81888544891641,25.0
2979,57.23684210526316,25.0
2980,56.8063080495356,25.0
2981,56.815982972136226,25.0
2982,57.28037925696594,25.0
2983,56.066176470588225,25.0
2984,55.99361455108358,25.0
2985,54.702012383900936,25.0
2986,54.85197368421053,25.0
2987,56.74342105263158,25.0
2988,59.88293343653251,25.0
2989,52.55901702786378,25.0
2990,55.81946594427245,25.0
2991,57.97213622291022,25.0
2992,54.71168730650155,25.0
2993,56.67085913312694,25.0
2994,56.404798761609904,25.0
2995,56.395123839009294,25.0
2996,58.89125386996905,25.0
2997,52.597716718266255,25.0
2998,56.91756965944272,25.0
2999,59.776509287925705,25.0
3000,54.44078947368421,25.0
3001,56.25000000000001,25.0
3002,55.95491486068111,25.0
3003,54.75038699690403,25.0
3004,55.83397832817337,25.0
3005,57.63835139318886,25.0
3006,54.126354489164086,25.0
3007,56.095201238390096,25.0
3008,52.462267801857585,25.0
3009,52.00270897832817,25.0
3010,59.99419504643963,25.0
3011,56.08552631578946,25.0
3012,59.38951238390092,25.0
3013,55.877515479876166,25.0
3014,54.261803405572756,25.0
3015,58.9154411764706,25.0
3016,61.01006191950464,25.0
3017,60.279605263157904,25.0
3018,53.79256965944272,25.0
3019,51.18517801857585,25.0
3020,55.63564241486068,25.0
3021,54.65363777089784,25.0
3022,58.378482972136226,25.0
3023,55.63564241486068,25.0
3024,53.26528637770898,25.0
3025,56.00328947368421,25.0
3026,55.41795665634675,25.0
3027,58.02051083591331,25.0
3028,57.63351393188856,25.0
3029,60.782701238390096,25.0
3030,59.520123839009294,25.0
3031,54.0828173374613,25.0
3032,54.910023219814235,25.0
3033,54.84229876160991,25.0
3034,57.21265479876161,25.0
3035,54.93421052631579,25.0
3036,56.92240712074304,25.0
3037,56.57894736842105,25.0
3038,62.200077399380795,25.0
3039,55.03579721362229,25.0
3040,59.48142414860681,25.0
3041,58.513931888544896,25.0
3042,57.08204334365325,25.0
3043,57.83668730650155,25.0
3044,59.868421052631575,25.0
3045,55.07449690402477,25.0
3046,58.13660990712074,25.0
3047,52.73800309597522,25.0
3048,57.49322755417957,25.0
3049,54.22310371517028,25.0
3050,56.81598297213622,25.0
3051,53.61842105263158,25.0
3052,54.977747678018574,25.0
3053,53.91350619195047,25.0
3054,57.967298761609904,25.0
3055,55.925890092879264,25.0
3056,60.207043343653254,25.0
3057,59.88777089783281,25.0
3058,57.65770123839009,25.0
3059,53.12016253869968,25.0
3060,56.36126160990712,25.0
3061,57.73510061919506,25.0
3062,55.746904024767794,25.0
3063,60.898800309597526,25.0
3064,56.91756965944272,25.0
3065,56.28869969040249,25.0
3066,55.27767027863778,25.0
3067,54.50367647058823,25.0
3068,54.692337461300305,25.0
3069,59.534636222910216,25.0
3070,54.19407894736842,25.0
3071,57.88506191950464,25.0
3072,57.59481424148607,25.0
3073,60.76335139318886,25.0
3074,59.15247678018575,25.0
3075,52.75735294117647,25.0
3076,52.42356811145511,25.0
3077,54.88099845201239,25.0
3078,55.824303405572756,25.0
3079,57.0046439628483,25.0
3080,54.745549535603715,25.0
3081,60.390866873065015,25.0
3082,59.21536377708978,25.0
3083,53.76354489164087,25.0
3084,53.93285603715171,25.0
3085,60.966524767801864,25.0
3086,55.91137770897833,25.0
3087,56.327399380804955,25.0
3088,51.823722910216716,25.0
3089,56.849845201238395,25.0
3090,55.3405572755418,25.0
3091,50.54179566563467,25.0
3092,59.04121517027864,25.0
3093,56.65150928792569,25.0
3094,57.78347523219813,25.0
3095,55.330882352941174,25.0
3096,60.29895510835913,25.0
3097,57.94311145510836,25.0
3098,57.938273993808046,25.0
3099,54.48916408668731,25.0
3100,59.02670278637771,25.0
3101,59.800696594427244,25.0
3102,57.4109907120743,25.0
3103,53.250773993808046,25.0
3104,59.56366099071207,25.0
3105,60.182856037151694,25.0
3106,58.388157894736835,25.0
3107,58.746130030959755,25.0
3108,57.83184984520124,25.0
3109,56.61764705882353,25.0
3110,54.08281733746129,25.0
3111,57.8125,25.0
3112,54.058630030959755,25.0
3113,62.29198916408671,25.0
3114,54.474651702786375,25.0
3115,55.205108359133135,25.0
3116,55.51954334365325,25.0
3117,55.09868421052631,25.0
3118,60.58920278637771,25.0
3119,54.66815015479875,25.0
3120,59.89260835913312,25.0
3121,55.05030959752322,25.0
3122,54.27147832817337,25.0
3123,55.417956656346746,25.0
3124,51.968846749226,25.0
3125,59.8780959752322,25.0
3126,55.22445820433436,25.0
3127,58.90092879256966,25.0
3128,55.20510835913313,25.0
3129,55.65982972136223,25.0
3130,56.796633126934985,25.0
3131,55.29702012383901,25.0
3132,56.472523219814235,25.0
3133,57.05785603715171,25.0
3134,59.37983746130031,25.0
3135,55.55824303405573,25.0
3136,60.632739938080505,25.0
3137,55.90654024767802,25.0
3138,58.15595975232198,25.0
3139,58.446207430340564,25.0
3140,56.81598297213622,25.0
3141,60.49729102167183,25.0
3142,61.266447368421055,25.0
3143,56.69020897832817,25.0
3144,58.53328173374613,25.0
3145,58.489744582043336,25.0
3146,61.07294891640868,25.0
3147,56.75309597523219,25.0
3148,59.229876160990706,25.0
3149,56.48219814241486,25.0
3150,56.008126934984524,25.0
3151,54.281153250774,25.0
3152,57.275541795665625,25.0
3153,56.80147058823529,25.0
3154,60.0812693498452,25.0
3155,54.411764705882355,25.0
3156,57.82701238390093,25.0
3157,56.45317337461301,25.0
3158,58.28657120743034,25.0
3159,54.99709752321981,25.0
3160,58.1124226006192,25.0
3161,59.40886222910217,25.0
3162,56.96110681114551,25.0
3163,56.64667182662538,25.0
3164,54.56656346749226,25.0
3165,58.92027863777089,25.0
3166,59.97484520123839,25.0
3167,53.3765479876161,25.0
3168,57.1594427244582,25.0
3169,54.69233746130031,25.0
3170,61.000386996904034,25.0
3171,58.45104489164087,25.0
3172,56.01296439628483,25.0
3173,57.10623065015481,25.0
3174,57.45452786377708,25.0
3175,63.77708978328174,25.0
3176,58.63970588235294,25.0
3177,52.94601393188854,25.0
3178,53.57488390092879,25.0
3179,60.71981424148606,25.0
3180,54.373065015479874,25.0
3181,56.33707430340557,25.0
3182,56.08068885448916,25.0
3183,57.691563467492266,25.0
3184,56.994969040247675,25.0
3185,58.155959752321984,25.0
3186,57.609326625387006,25.0
3187,56.69020897832817,25.0
3188,56.67085913312693,25.0
3189,56.16292569659443,25.0
3190,60.08126934984519,25.0
3191,54.411764705882355,25.0
3192,57.47871517027863,25.0
3193,55.94523993808049,25.0
3194,61.295472136222905,25.0
3195,60.579527863777095,25.0
3196,54.41176470588235,25.0
3197,56.98529411764706,25.0
3198,59.9264705882353,25.0
3199,57.125580495356026,25.0
3200,56.26934984520124,25.0
3201,56.79663312693498,25.0
3202,57.05301857585138,25.0
3203,52.94117647058823,25.0
3204,53.898993808049546,25.0
3205,54.57623839009288,25.0
3206,60.386029411764696,25.0
3207,55.15673374613003,25.0
3208,58.42685758513932,25.0
3209,56.52573529411765,25.0
3210,57.21749226006191,25.0
3211,57.14976780185759,25.0
3212,59.133126934984524,25.0
3213,56.74342105263158,25.0
3214,59.67492260061919,25.0
3215,58.44620743034056,25.0
3216,60.56985294117647,25.0
3217,55.84849071207431,25.0
3218,57.0046439628483,25.0
3219,58.40267027863777,25.0
3220,56.40963622291022,25.0
3221,59.05572755417957,25.0
3222,54.81327399380806,25.0
3223,55.93072755417956,25.0
3224,56.07101393188854,25.0
3225,54.377902476780186,25.0
3226,56.73858359133127,25.0
3227,55.587267801857585,25.0
3228,53.20723684210526,25.0
3229,55.2921826625387,25.0
3230,52.50580495356038,25.0
3231,57.21265479876162,25.0
3232,59.5249613003096,25.0
3233,58.6155185758514,25.0
3234,55.97910216718267,25.0
3235,56.1967879256966,25.0
3236,59.2685758513932,25.0
3237,57.17395510835913,25.0
3238,52.82507739938081,25.0
3239,56.57894736842105,25.0
3240,54.47948916408669,25.0
3241,58.61551857585139,25.0
3242,57.25619195046439,25.0
3243,56.27902476780186,25.0
3244,57.22232972136223,25.0
3245,56.60797213622291,25.0
3246,56.69020897832817,25.0
3247,54.66331269349845,25.0
3248,55.65982972136222,25.0
3249,55.151896284829725,25.0
3250,57.420665634674926,25.0
3251,57.493227554179555,25.0
3252,55.26315789473684,25.0
3253,59.42821207430341,25.0
3254,60.018382352941174,25.0
3255,55.52921826625387,25.0
3256,58.5671439628483,25.0
3257,59.046052631578945,25.0
3258,52.887964396284836,25.0
3259,52.520317337461314,25.0
3260,58.29140866873065,25.0
3261,56.41931114551084,25.0
3262,58.15112229102167,25.0
3263,59.74748452012385,25.0
3264,58.46071981424148,25.0
3265,54.547213622291025,25.0
3266,53.768382352941174,25.0
3267,58.40750773993809,25.0
3268,54.80843653250774,25.0
3269,56.965944272445824,25.0
3270,54.54237616099071,25.0
3271,57.42066563467491,25.0
3272,54.682662538699695,25.0
3273,53.2265866873065,25.0
3274,57.531927244582036,25.0
3275,58.305921052631575,25.0
3276,55.18092105263158,25.0
3277,53.81675696594427,25.0
3278,59.926470588235304,25.0
3279,54.464976780185744,25.0
3280,55.53405572755418,25.0
3281,53.86513157894737,25.0
3282,58.47039473684211,25.0
3283,57.29005417956657,25.0
3284,59.09442724458205,25.0
3285,54.793924148606806,25.0
3286,57.589976780185765,25.0
3287,57.091718266253864,25.0
3288,58.15595975232198,25.0
3289,56.951431888544896,25.0
3290,58.41234520123838,25.0
3291,57.51741486068111,25.0
3292,57.14493034055727,25.0
3293,58.50909442724457,25.0
3294,58.66389318885448,25.0
3295,57.232004643962846,25.0
3296,54.943885448916404,25.0
3297,55.70820433436532,25.0
3298,53.599071207430335,25.0
3299,62.25328947368422,25.0
3300,61.74051857585138,25.0
3301,55.534055727554176,25.0
3302,55.69369195046439,25.0
3303,59.09442724458205,25.0
3304,57.99632352941177,25.0
3305,58.27689628482972,25.0
3306,56.61280959752322,25.0
3307,56.31288699690403,25.0
3308,60.35700464396285,25.0
3309,58.08823529411765,25.0
3310,55.84849071207431,25.0
3311,60.110294117647065,25.0
3312,54.76489938080495,25.0
3313,58.60584365325078,25.0
3314,56.61764705882352,25.0
3315,59.0218653250774,25.0
3316,56.68537151702787,25.0
3317,52.829914860681114,25.0
3318,58.09307275541795,25.0
3319,56.49671052631578,25.0
3320,54.35371517027864,25.0
3321,55.57275541795666,25.0
3322,55.587267801857585,25.0
3323,57.14009287925697,25.0
3324,58.04953560371517,25.0
3325,56.09036377708978,25.0
3326,58.663893188854495,25.0
3327,58.21884674922601,25.0
3328,58.15112229102168,25.0
3329,52.45743034055728,25.0
3330,54.943885448916404,25.0
3331,55.219620743034056,25.0
3332,55.90170278637771,25.0
3333,59.69910990712074,25.0
3334,56.491873065015476,25.0
3335,53.19272445820433,25.0
3336,55.62596749226006,25.0
3337,57.9624613003096,25.0
3338,53.00406346749226,25.0
3339,54.09249226006192,25.0
3340,60.632739938080505,25.0
3341,56.308049535603715,25.0
3342,54.508513931888544,25.0
3343,58.068885448916404,25.0
3344,59.907120743034056,25.0
3345,54.26180340557276,25.0
3346,57.604489164086694,25.0
3347,57.14009287925697,25.0
3348,54.672987616099064,25.0
3349,54.16021671826625,25.0
3350,53.724845201238395,25.0
3351,53.270123839009294,25.0
3352,57.5125773993808,25.0
3353,54.508513931888544,25.0
3354,58.50909442724459,25.0
3355,55.87751547987616,25.0
3356,61.10681114551085,25.0
3357,59.29276315789474,25.0
3358,53.874806501547994,25.0
3359,54.95839783281733,25.0
3360,56.632159442724465,25.0
3361,57.14009287925696,25.0
3362,58.13660990712075,25.0
3363,53.70065789473684,25.0
3364,57.256191950464405,25.0
3365,55.5969427244582,25.0
3366,54.387577399380795,25.0
3367,56.12906346749226,25.0
3368,62.466137770897845,25.0
3369,57.019156346749234,25.0
3370,57.74961300309598,25.0
3371,54.24245356037152,25.0
3372,60.19736842105264,25.0
3373,60.052244582043336,25.0
3374,52.912151702786375,25.0
3375,56.32739938080495,25.0
3376,56.12906346749226,25.0
3377,51.68827399380805,25.0
3378,58.3155959752322,25.0
3379,56.54024767801858,25.0
3380,54.140866873065015,25.0
3381,57.885061919504636,25.0
3382,57.362616099071204,25.0
3383,56.13390092879257,25.0
3384,60.052244582043336,25.0
3385,56.699883900928796,25.0
3386,57.64802631578947,25.0
3387,56.41447368421053,25.0
3388,56.91756965944273,25.0
3389,59.046052631578945,25.0
3390,54.643962848297214,25.0
3391,55.48084365325078,25.0
3392,58.020510835913306,25.0
3393,59.26373839009288,25.0
3394,54.83262383900929,25.0
3395,60.06191950464397,25.0
3396,58.88641640866872,25.0
3397,57.967298761609904,25.0
3398,56.5547600619195,25.0
3399,56.88370743034055,25.0
3400,57.81249999999999,25.0
3401,58.934791021671835,25.0
3402,58.973490712074295,25.0
3403,53.826431888544896,25.0
3404,54.81327399380805,25.0
3405,57.62867647058823,25.0
3406,60.49729102167183,25.0
3407,55.853328173374614,25.0
3408,55.89202786377709,25.0
3409,58.78482972136223,25.0
3410,52.9169891640867,25.0
3411,54.58107585139319,25.0
3412,57.952786377708975,25.0
3413,58.43169504643963,25.0
3414,54.977747678018574,25.0
3415,59.297600619195045,25.0
3416,56.44349845201239,25.0
3417,58.117260061919495,25.0
3418,57.54160216718266,25.0
3419,54.01993034055728,25.0
3420,58.378482972136226,25.0
3421,55.4953560371517,25.0
3422,54.987422600619205,25.0
3423,54.76973684210526,25.0
3424,59.38951238390092,25.0
3425,54.66331269349845,25.0
3426,57.58997678018576,25.0
3427,55.38893188854489,25.0
3428,55.91137770897832,25.0
3429,56.733746130030966,25.0
3430,53.58455882352941,25.0
3431,59.737809597523224,25.0
3432,55.61145510835913,25.0
3433,55.76141640866874,25.0
3434,55.23413312693498,25.0
3435,51.857585139318886,25.0
3436,55.93072755417956,25.0
3437,55.26315789473685,25.0
3438,52.48645510835914,25.0
3439,55.606617647058826,25.0
3440,55.050309597523224,25.0
3441,56.91756965944271,25.0
3442,53.13951238390093,25.0
3443,52.25425696594427,25.0
3444,56.74825851393189,25.0
3445,56.71439628482971,25.0
3446,55.872678018575854,25.0
3447,51.27708978328174,25.0
3448,57.74961300309598,25.0
3449,56.0516640866873,25.0
3450,57.314241486068106,25.0
3451,52.515479876161,25.0
3452,56.46768575851394,25.0
3453,58.23819659442725,25.0
3454,59.805534055727556,25.0
3455,54.61010061919506,25.0
3456,55.89202786377708,25.0
3457,56.56443498452013,25.0
3458,59.921633126934985,25.0
3459,50.1064241486068,25.0
3460,55.398606811145505,25.0
3461,53.125,25.0
3462,55.1905959752322,25.0
3463,57.70607585139317,25.0
3464,54.237616099071204,25.0
3465,58.276896284829725,25.0
3466,54.508513931888544,25.0
3467,58.93962848297213,25.0
3468,56.525735294117645,25.0
3469,56.709558823529406,25.0
3470,59.404024767801864,25.0
3471,58.06888544891642,25.0
3472,55.95007739938081,25.0
3473,56.21613777089784,25.0
3474,60.482778637770906,25.0
3475,58.286571207430335,25.0
3476,57.73026315789473,25.0
3477,54.19891640866872,25.0
3478,53.00890092879257,25.0
3479,56.99013157894737,25.0
3480,51.21420278637771,25.0
3481,55.824303405572756,25.0
3482,56.046826625387,25.0
3483,57.52708978328173,25.0
3484,59.50561145510836,25.0
3485,57.909249226006196,25.0
3486,57.62867647058823,25.0
3487,58.925116099071204,25.0
3488,56.45317337461301,25.0
3489,59.45239938080495,25.0
3490,59.64106037151703,25.0
3491,58.65421826625388,25.0
3492,54.31501547987616,25.0
3493,56.675696594427244,25.0
3494,54.344040247678016,25.0
3495,57.735100619195045,25.0
3496,56.17260061919505,25.0
3497,58.60100619195047,25.0
3498,54.96323529411764,25.0
3499,57.14009287925697,25.0
3500,57.169117647058826,25.0
3501,59.0799148606811,25.0
3502,56.57894736842105,25.0
3503,57.754450464396285,25.0
3504,56.0516640866873,25.0
3505,57.386803405572756,25.0
3506,52.79121517027863,25.0
3507,55.71787925696594,25.0
3508,58.47523219814241,25.0
3509,53.966718266253864,25.0
3510,53.38138544891641,25.0
3511,57.10139318885449,25.0
3512,58.43169504643963,25.0
3513,56.699883900928796,25.0
3514,57.319078947368425,25.0
3515,58.262383900928796,25.0
3516,54.41660216718265,25.0
3517,59.089589783281724,25.0
3518,55.81946594427244,25.0
3519,55.51954334365325,25.0
3520,53.6329334365325,25.0
3521,57.89473684210527,25.0
3522,57.285216718266255,25.0
3523,54.11667956656347,25.0
3524,54.85681114551084,25.0
3525,53.337848297213625,25.0
3526,54.20375386996904,25.0
3527,56.79663312693499,25.0
3528,56.10971362229102,25.0
3529,53.82159442724458,25.0
3530,57.11106811145512,25.0
3531,58.06888544891641,25.0
3532,55.32120743034055,25.0
3533,57.5077399380805,25.0
3534,57.21265479876161,25.0
3535,57.17879256965945,25.0
3536,52.71381578947368,25.0
3537,53.03308823529412,25.0
3538,59.20568885448917,25.0
3539,58.576818885448915,25.0
3540,55.974264705882355,25.0
3541,55.70820433436533,25.0
3542,57.44969040247678,25.0
3543,56.743421052631575,25.0
3544,55.94040247678019,25.0
3545,55.79044117647059,25.0
3546,57.048181114551085,25.0
3547,57.33842879256966,25.0
3548,55.384094427244584,25.0
3549,52.73800309597523,25.0
3550,54.7939241486068,25.0
3551,56.48703560371517,25.0
3552,56.82082043343654,25.0
3553,58.00599845201238,25.0
3554,58.8186919504644,25.0
3555,57.18363003095976,25.0
3556,53.92318111455109,25.0
3557,56.35642414860682,25.0
3558,54.005417956656345,25.0
3559,55.59210526315789,25.0
3560,57.8657120743034,25.0
3561,58.15112229102167,25.0
3562,54.65847523219814,25.0
3563,60.8891253869969,25.0
3564,54.494001547987615,25.0
3565,51.7124613003096,25.0
3566,57.967298761609904,25.0
3567,56.67085913312694,25.0
3568,53.608746130030966,25.0
3569,56.578947368421055,25.0
3570,59.26373839009288,25.0
3571,55.10352167182663,25.0
3572,58.07856037151703,25.0
3573,54.726199690402474,25.0
3574,58.605843653250766,25.0
3575,60.20220588235294,25.0
3576,55.74206656346749,25.0
3577,52.099458204334354,25.0
3578,56.999806501547994,25.0
3579,59.055727554179555,25.0
3580,53.17821207430341,25.0
3581,54.17472910216718,25.0
3582,57.120743034055735,25.0
3583,59.4233746130031,25.0
3584,56.49671052631578,25.0
3585,57.96729876160991,25.0
3586,57.952786377708975,25.0
3587,58.59616873065016,25.0
3588,53.47813467492261,25.0
3589,54.83746130030959,25.0
3590,54.15537925696595,25.0
3591,56.46768575851394,25.0
3592,56.38061145510836,25.0
3593,56.008126934984524,25.0
3594,56.76760835913312,25.0
3595,58.04469814241486,25.0
3596,55.02612229102167,25.0
3597,57.60448916408667,25.0
3598,53.6813080495356,25.0
3599,55.40344427244582,25.0
3600,54.19407894736842,25.0
3601,56.308049535603715,25.0
3602,57.32875386996904,25.0
3603,50.76915634674922,25.0
3604,53.7780572755418,25.0
3605,54.81811145510836,25.0
3606,56.714396284829725,25.0
3607,51.25290247678019,25.0
3608,53.82159442724458,25.0
3609,57.18363003095976,25.0
3610,60.192530959752325,25.0
3611,59.69427244582044,25.0
3612,57.01431888544892,25.0
3613,59.21536377708978,25.0
3614,55.41795665634675,25.0
3615,56.84500773993808,25.0
3616,56.91273219814241,25.0
3617,57.00464396284829,25.0
3618,57.551277089783284,25.0
3619,54.58107585139319,25.0
3620,59.40886222910217,25.0
3621,54.29566563467491,25.0
3622,56.07101393188855,25.0
3623,57.12558049535604,25.0
3624,62.708010835913306,25.0
3625,51.33513931888545,25.0
3626,60.342492260061924,25.0
3627,62.24845201238389,25.0
3628,56.49671052631578,25.0
3629,60.16350619195047,25.0
3630,58.75580495356037,25.0
3631,61.25193498452012,25.0
3632,53.734520123839005,25.0
3633,57.58997678018575,25.0
3634,55.54373065015481,25.0
3635,56.36609907120742,25.0
3636,57.08204334365326,25.0
3637,56.932082043343655,25.0
3638,55.766253869969034,25.0
3639,53.87480650154799,25.0
3640,57.66737616099072,25.0
3641,58.16079721362229,25.0
3642,58.64454334365325,25.0
3643,53.686145510835914,25.0
3644,59.297600619195045,25.0
3645,55.83397832817337,25.0
3646,57.914086687306494,25.0
3647,56.47252321981425,25.0
3648,55.00677244582044,25.0
3649,54.99226006191951,25.0
3650,49.17279411764706,25.0
3651,56.04198916408669,25.0
3652,53.99090557275543,25.0
3653,59.84907120743034,25.0
3654,56.308049535603715,25.0
3655,57.115905572755416,25.0
3656,55.00677244582044,25.0
3657,55.80495356037152,25.0
3658,52.41873065015481,25.0
3659,57.5077399380805,25.0
3660,56.70955882352942,25.0
3661,57.96729876160991,25.0
3662,58.068885448916404,25.0
3663,56.74825851393189,25.0
3664,55.78076625386996,25.0
3665,56.73858359133127,25.0
3666,56.293537151702786,25.0
3667,56.84500773993808,25.0
3668,57.304566563467496,25.0
3669,53.134674922600624,25.0
3670,55.959752321981426,25.0
3671,56.206462848297214,25.0
3672,61.56153250773994,25.0
3673,55.71304179566563,25.0
3674,61.7888931888545,25.0
3675,57.57546439628482,25.0
3676,53.10565015479876,25.0
3677,55.83397832817337,25.0
3678,57.570626934984524,25.0
3679,59.59268575851394,25.0
3680,60.32314241486068,25.0
3681,58.18014705882353,25.0
3682,59.873258513931894,25.0
3683,53.98123065015481,25.0
3684,54.45530185758515,25.0
3685,57.19814241486068,25.0
3686,53.753869969040245,25.0
3687,55.13738390092879,25.0
3688,59.49109907120743,25.0
3689,55.02128482972136,25.0
3690,58.32043343653251,25.0
3691,56.65634674922601,25.0
3692,60.04256965944271,25.0
3693,52.718653250774,25.0
3694,59.06056501547988,25.0
3695,57.04334365325077,25.0
3696,55.940402476780186,25.0
3697,55.25348297213622,25.0
3698,57.06269349845201,25.0
3699,55.2921826625387,25.0
3700,55.684017027863774,25.0
3701,54.237616099071204,25.0
3702,57.783475232198136,25.0
3703,58.98316563467492,25.0
3704,60.42956656346749,25.0
3705,56.18227554179567,25.0
3706,56.7530959752322,25.0
3707,58.707430340557266,25.0
3708,57.22232972136222,25.0
3709,59.786184210526315,25.0
3710,56.095201238390096,25.0
3711,55.059984520123834,25.0
3712,62.35971362229103,25.0
3713,57.34810371517028,25.0
3714,57.5077399380805,25.0
3715,55.78076625386996,25.0
3716,52.617066563467496,25.0
3717,58.74613003095977,25.0
3718,53.44910990712074,25.0
3719,57.11106811145511,25.0
3720,58.988003095975216,25.0
3721,56.48219814241486,25.0
3722,56.31772445820433,25.0
3723,57.217492260061924,25.0
3724,57.435178018575854,25.0
3725,58.78482972136223,25.0
3726,51.48026315789475,25.0
3727,54.76973684210526,25.0
3728,56.994969040247675,25.0
3729,54.90518575851393,25.0
3730,54.663312693498455,25.0
3731,57.710913312693506,25.0
3732,54.4359520123839,25.0
3733,52.607391640866865,25.0
3734,58.69775541795665,25.0
3735,54.99709752321981,25.0
3736,55.31153250773993,25.0
3737,54.01993034055727,25.0
3738,56.380611455108365,25.0
3739,56.07101393188855,25.0
3740,60.342492260061924,25.0
3741,54.74071207430341,25.0
3742,57.13525541795666,25.0
3743,54.46497678018576,25.0
3744,59.24438854489164,25.0
3745,59.8780959752322,25.0
3746,57.70123839009288,25.0
3747,57.84636222910217,25.0
3748,60.782701238390096,25.0
3749,54.41660216718266,25.0
3750,60.21188080495355,25.0
3751,53.43943498452012,25.0
3752,58.06404798761609,25.0
3753,56.46768575851393,25.0
3754,60.34732972136223,25.0
3755,55.442143962848306,25.0
3756,55.58243034055727,25.0
3757,56.16292569659443,25.0
3758,60.26025541795664,25.0
3759,57.536764705882355,25.0
3760,54.561726006191954,25.0
3761,60.04740712074303,25.0
3762,58.76064241486068,25.0
3763,56.24032507739938,25.0
3764,57.23200464396285,25.0
3765,55.330882352941174,25.0
3766,54.324690402476776,25.0
3767,59.25406346749226,25.0
3768,57.14493034055728,25.0
3769,58.45104489164087,25.0
3770,58.876741486068106,25.0
3771,56.48219814241485,25.0
3772,57.82701238390092,25.0
3773,61.55185758513932,25.0
3774,54.31985294117647,25.0
3775,54.494001547987615,25.0
3776,55.55340557275541,25.0
3777,58.378482972136226,25.0
3778,54.70201238390092,25.0
3779,57.619001547987615,25.0
3780,58.83804179566563,25.0
3781,54.14570433436533,25.0
3782,57.386803405572756,25.0
3783,57.362616099071204,25.0
3784,58.11242260061918,25.0
3785,56.97561919504644,25.0
3786,56.78212074303405,25.0
3787,53.79740712074304,25.0
3788,53.632933436532504,25.0
3789,59.9264705882353,25.0
3790,57.54643962848297,25.0
3791,59.10893962848298,25.0
3792,55.65499226006192,25.0
3793,55.85332817337461,25.0
3794,54.513351393188856,25.0
3795,59.8297213622291,25.0
3796,56.129063467492266,25.0
3797,56.14841331269349,25.0
3798,55.90170278637771,25.0
3799,55.384094427244584,25.0
3800,55.58726780185758,25.0
3801,55.73722910216719,25.0
3802,56.73374613003096,25.0
3803,53.68614551083592,25.0
3804,57.76412538699691,25.0
3805,55.563080495356026,25.0
3806,55.771091331269346,25.0
3807,55.234133126934985,25.0
3808,53.66679566563466,25.0
3809,52.921826625387,25.0
3810,56.878869969040245,25.0
3811,62.89183436532506,25.0
3812,60.323142414860676,25.0
3813,58.354295665634666,25.0
3814,52.307469040247675,25.0
3815,60.052244582043336,25.0
3816,57.59965170278638,25.0
3817,57.923761609907125,25.0
3818,56.58378482972136,25.0
3819,55.524380804953566,25.0
3820,58.57198142414862,25.0
3821,52.829914860681114,25.0
3822,59.79102167182663,25.0
3823,55.2389705882353,25.0
3824,56.88854489164087,25.0
3825,55.66466718266253,25.0
3826,57.78347523219814,25.0
3827,57.79798761609908,25.0
3828,55.83397832817337,25.0
3829,55.70820433436533,25.0
3830,55.2389705882353,25.0
3831,55.48084365325079,25.0
3832,54.813273993808046,25.0
3833,54.40692724458205,25.0
3834,56.66602167182663,25.0
3835,55.65015479876161,25.0
3836,58.45104489164086,25.0
3837,53.202399380804955,25.0
3838,57.34326625386996,25.0
3839,56.23065015479875,25.0
3840,55.843653250774,25.0
3841,56.356424148606806,25.0
3842,59.38951238390092,25.0
3843,56.04198916408669,25.0
3844,59.94582043343653,25.0
3845,56.98045665634674,25.0
3846,55.32604489164087,25.0
3847,57.096555727554176,25.0
3848,57.464202786377705,25.0
3849,56.859520123839005,25.0
3850,57.98664860681114,25.0
3851,55.55340557275541,25.0
3852,56.16292569659443,25.0
3853,57.51257739938081,25.0
3854,59.07991486068111,25.0
3855,56.25,25.0
3856,55.18575851393189,25.0
3857,58.378482972136226,25.0
3858,53.12016253869969,25.0
3859,58.8235294117647,25.0
3860,60.995549535603715,25.0
3861,58.663893188854495,25.0
3862,59.74264705882353,25.0
3863,56.82082043343654,25.0
3864,57.44485294117647,25.0
3865,60.50212848297213,25.0
3866,56.16776315789474,25.0
3867,57.73510061919505,25.0
3868,54.30534055727554,25.0
3869,63.225619195046434,25.0
3870,58.77031733746131,25.0
3871,56.19678792569659,25.0
3872,56.41931114551083,25.0
3873,56.08068885448916,25.0
3874,61.484133126934985,25.0
3875,52.887964396284836,25.0
3876,55.321207430340564,25.0
3877,59.08475232198142,25.0
3878,55.97426470588236,25.0
3879,56.46284829721362,25.0
3880,54.53270123839009,25.0
3881,50.20317337461301,25.0
3882,59.10893962848297,25.0
3883,55.10835913312694,25.0
3884,56.675696594427244,25.0
3885,54.179566563467496,25.0
3886,54.45046439628483,25.0
3887,58.35429566563467,25.0
3888,56.733746130030966,25.0
3889,54.01509287925697,25.0
3890,52.95568885448916,25.0
3891,55.89202786377708,25.0
3892,56.48219814241486,25.0
3893,55.99845201238389,25.0
3894,58.1124226006192,25.0
3895,56.796633126934985,25.0
3896,55.093846749226,25.0
3897,60.308630030959755,25.0
3898,59.07023993808049,25.0
3899,56.351586687306494,25.0
3900,56.53541021671826,25.0
3901,56.94659442724458,25.0
3902,56.66602167182663,25.0
3903,57.280379256965944,25.0
3904,56.54024767801858,25.0
3905,58.25754643962848,25.0
3906,55.86300309597522,25.0
3907,56.69020897832818,25.0
3908,60.187693498452006,25.0
3909,56.28386222910217,25.0
3910,56.612809597523224,25.0
3911,53.72000773993808,25.0
3912,51.586687306501545,25.0
3913,55.93556501547988,25.0
3914,58.591331269349844,25.0
3915,52.999226006191954,25.0
3916,57.23684210526316,25.0
3917,50.02418730650156,25.0
3918,58.644543343653254,25.0
3919,54.247291021671835,25.0
3920,60.60371517027864,25.0
3921,58.5719814241486,25.0
3922,56.08552631578947,25.0
3923,57.78347523219814,25.0
3924,55.621130030959755,25.0
3925,56.11938854489164,25.0
3926,62.8531346749226,25.0
3927,61.37287151702787,25.0
3928,57.004643962848306,25.0
3929,55.819465944272444,25.0
3930,58.41234520123838,25.0
3931,52.49129256965945,25.0
3932,59.85390866873065,25.0
3933,59.76683436532508,25.0
3934,56.1000386996904,25.0
3935,57.93827399380805,25.0
3936,53.17821207430341,25.0
3937,55.737229102167184,25.0
3938,56.72407120743034,25.0
3939,58.37364551083591,25.0
3940,59.89744582043344,25.0
3941,56.92240712074303,25.0
3942,54.91002321981424,25.0
3943,57.08204334365325,25.0
3944,54.97291021671827,25.0
3945,60.76818885448917,25.0
3946,57.35294117647059,25.0
3947,56.30804953560372,25.0
3948,60.690789473684205,25.0
3949,55.959752321981426,25.0
3950,58.40750773993808,25.0
3951,54.203753869969034,25.0
3952,56.148413312693506,25.0
3953,57.372291021671835,25.0
3954,56.1435758513932,25.0
3955,58.639705882352935,25.0
3956,57.45452786377709,25.0
3957,57.889899380804955,25.0
3958,53.72968266253869,25.0
3959,59.58784829721362,25.0
3960,54.69233746130031,25.0
3961,53.99090557275541,25.0
3962,56.98045665634677,25.0
3963,54.94872291021672,25.0
3964,52.33649380804953,25.0
3965,58.58165634674922,25.0
3966,61.271284829721345,25.0
3967,57.86087461300309,25.0
3968,57.59965170278638,25.0
3969,56.45801083591331,25.0
3970,59.25890092879257,25.0
3971,56.16776315789474,25.0
3972,57.062693498452006,25.0
3973,56.53057275541796,25.0
3974,55.4421439628483,25.0
3975,58.68324303405572,25.0
3976,56.10003869969041,25.0
3977,55.87751547987616,25.0
3978,59.350812693498455,25.0
3979,55.016447368421055,25.0
3980,59.35565015479876,25.0
3981,52.32681888544891,25.0
3982,54.11667956656346,25.0
3983,54.49883900928792,25.0
3984,58.17530959752322,25.0
3985,60.095781733746136,25.0
3986,56.84017027863777,25.0
3987,55.10835913312693,25.0
3988,56.55959752321981,25.0
3989,57.89473684210526,25.0
3990,54.784249226006196,25.0
3991,52.757352941176485,25.0
3992,57.952786377708975,25.0
3993,62.34520123839008,25.0
3994,55.32604489164086,25.0
3995,55.88719040247678,25.0
3996,55.974264705882355,25.0
3997,59.433049535603715,25.0
3998,57.570626934984524,25.0
3999,57.943111455108365,25.0
4000,54.50367647058824,25.0
4001,58.76547987616098,25.0
4002,54.890673374612994,25.0
4003,56.690208978328165,25.0
4004,53.61842105263158,25.0
4005,55.37441950464397,25.0
4006,57.280379256965944,25.0
4007,56.24032507739938,25.0
4008,58.33978328173374,25.0
4009,54.84713622291022,25.0
4010,53.990905572755416,25.0
4011,55.20994582043345,25.0
4012,53.61358359133128,25.0
4013,57.8221749226006,25.0
4014,55.52438080495356,25.0
4015,52.77186532507739,25.0
4016,54.66815015479875,25.0
4017,55.92589009287925,25.0
4018,59.83939628482971,25.0
4019,54.67782507739938,25.0
4020,59.0750773993808,25.0
4021,53.216911764705884,25.0
4022,56.69504643962848,25.0
4023,58.141447368421055,25.0
4024,55.64047987616099,25.0
4025,54.3875773993808,25.0
4026,56.97561919504645,25.0
4027,57.22232972136223,25.0
4028,57.889899380804955,25.0
4029,56.41931114551083,25.0
4030,57.07720588235295,25.0
4031,56.646671826625386,25.0
4032,54.0344427244582,25.0
4033,55.03579721362229,25.0
4034,52.44775541795666,25.0
4035,54.95839783281734,25.0
4036,55.703366873065015,25.0
4037,57.5077399380805,25.0
4038,57.02399380804953,25.0
4039,54.57140092879256,25.0
4040,54.46013931888545,25.0
4041,59.45723684210526,25.0
4042,62.04527863777089,25.0
4043,56.33223684210527,25.0
4044,59.936145510835914,25.0
4045,53.898993808049525,25.0
4046,53.47329721362229,25.0
4047,58.28657120743034,25.0
4048,55.61145510835913,25.0
4049,56.43382352941176,25.0
4050,54.79392414860681,25.0
4051,54.57140092879257,25.0
4052,58.26722136222911,25.0
4053,53.705495356037154,25.0
4054,56.03715170278638,25.0
4055,56.03231424148606,25.0
4056,58.7219427244582,25.0
4057,55.87751547987616,25.0
4058,58.4655572755418,25.0
4059,56.85468266253869,25.0
4060,59.133126934984524,25.0
4061,56.830495356037154,25.0
4062,57.386803405572756,25.0
4063,55.66466718266254,25.0
4064,54.27631578947369,25.0
4065,58.98316563467492,25.0
4066,55.58726780185758,25.0
4067,57.98664860681114,25.0
4068,54.29082817337461,25.0
4069,57.08688080495355,25.0
4070,58.7171052631579,25.0
4071,58.7219427244582,25.0
4072,55.804953560371516,25.0
4073,55.089009287925705,25.0
4074,59.31211300309597,25.0
4075,61.01973684210527,25.0
4076,52.08494582043343,25.0
4077,57.07720588235294,25.0
4078,56.39512383900929,25.0
4079,54.900348297213625,25.0
4080,52.78154024767802,25.0
4081,48.955108359133135,25.0
4082,55.190595975232206,25.0
4083,55.0890092879257,25.0
4084,53.44910990712074,25.0
4085,55.83881578947369,25.0
4086,58.654218266253864,25.0
4087,54.3875773993808,25.0
4088,56.86435758513932,25.0
4089,56.84017027863777,25.0
4090,56.91756965944273,25.0
4091,55.45181888544892,25.0
4092,56.83533281733746,25.0
4093,55.867840557275535,25.0
4094,57.69156346749226,25.0
4095,59.95549535603715,25.0
4096,59.59752321981425,25.0
4097,55.68885448916408,25.0
4098,56.153250773993804,25.0
4099,55.31636996904025,25.0
4100,55.75174148606811,25.0
4101,57.362616099071204,25.0
4102,57.19814241486068,25.0
4103,52.326818885448915,25.0
4104,56.33223684210527,25.0
4105,56.93208204334366,25.0
4106,55.86300309597523,25.0
4107,54.85197368421053,25.0
4108,59.20085139318886,25.0
4109,54.982585139318886,25.0
4110,54.97774767801858,25.0
4111,56.23548761609907,25.0
4112,56.67085913312693,25.0
4113,57.69156346749226,25.0
4114,53.60874613003096,25.0
4115,59.849071207430335,25.0
4116,56.42898606811146,25.0
4117,57.07720588235294,25.0
4118,54.735874613003105,25.0
4119,62.37422600619195,25.0
4120,55.63080495356037,25.0
4121,58.05437306501548,25.0
4122,54.89551083591331,25.0
4123,53.95220588235294,25.0
4124,58.28657120743034,25.0
4125,53.99090557275541,25.0
4126,55.67917956656346,25.0
4127,55.28734520123839,25.0
4128,56.86435758513932,25.0
4129,57.60448916408668,25.0
4130,58.528444272445824,25.0
4131,59.486261609907125,25.0
4132,57.57546439628483,25.0
4133,50.6530572755418,25.0
4134,56.21613777089784,25.0
4135,56.97078173374613,25.0
4136,57.783475232198136,25.0
4137,59.133126934984524,25.0
4138,54.23277863777088,25.0
4139,55.70820433436533,25.0
4140,57.981811145510825,25.0
4141,57.140092879256976,25.0
4142,59.31211300309597,25.0
4143,53.158862229102155,25.0
4144,52.84926470588235,25.0
4145,59.49109907120743,25.0
4146,57.788312693498455,25.0
4147,54.88583591331269,25.0
4148,55.85332817337462,25.0
4149,59.921633126934985,25.0
4150,57.34810371517028,25.0
4151,56.090363777089784,25.0
4152,58.68324303405572,25.0
4153,53.70065789473684,25.0
4154,59.98935758513932,25.0
4155,56.06133900928793,25.0
4156,57.440015479876166,25.0
4157,55.12287151702786,25.0
4158,55.65015479876162,25.0
4159,58.22368421052632,25.0
4160,56.73374613003096,25.0
4161,58.74129256965945,25.0
4162,58.05921052631578,25.0
4163,58.08823529411765,25.0
4164,54.784249226006196,25.0
4165,53.03792569659442,25.0
4166,56.69504643962848,25.0
4167,57.80282507739939,25.0
4168,59.95549535603715,25.0
4169,59.994195046439636,25.0
4170,53.2749613003096,25.0
4171,54.59075077399381,25.0
4172,56.73858359133127,25.0
4173,57.16911764705882,25.0
4174,53.31366099071208,25.0
4175,57.29972910216718,25.0
4176,58.779992260061924,25.0
4177,54.745549535603715,25.0
4178,55.87267801857585,25.0
4179,57.45452786377709,25.0
4180,55.48084365325078,25.0
4181,57.39647832817338,25.0
4182,56.58862229102167,25.0
4183,56.86435758513932,25.0
4184,57.725425696594435,25.0
4185,56.24516253869969,25.0
4186,54.76489938080495,25.0
4187,58.93962848297214,25.0
4188,54.643962848297214,25.0
4189,58.272058823529406,25.0
4190,58.27689628482972,25.0
4191,55.64047987616099,25.0
4192,59.263738390092875,25.0
4193,58.262383900928796,25.0
4194,57.12558049535603,25.0
4195,58.944465944272444,25.0
4196,56.92240712074304,25.0
4197,52.55417956656346,25.0
4198,56.96110681114551,25.0
4199,57.19330495356036,25.0
4200,56.78212074303405,25.0
4201,57.68188854489164,25.0
4202,54.5375386996904,25.0
4203,58.08339783281734,25.0
4204,56.206462848297214,25.0
4205,57.85119969040248,25.0
4206,53.02825077399381,25.0
4207,58.02051083591332,25.0
4208,58.673568111455104,25.0
4209,56.056501547987615,25.0
4210,57.56095201238391,25.0
4211,58.00599845201238,25.0
4212,61.86145510835913,25.0
4213,58.61551857585138,25.0
4214,60.74883900928793,25.0
4215,53.69582043343653,25.0
4216,57.8608746130031,25.0
4217,59.215363777089784,25.0
4218,62.04044117647059,25.0
4219,55.248645510835914,25.0
4220,54.87132352941176,25.0
4221,53.163699690402474,25.0
4222,60.00870743034056,25.0
4223,56.76760835913313,25.0
4224,56.88370743034056,25.0
4225,56.06617647058823,25.0
4226,59.92163312693498,25.0
4227,59.771671826625386,25.0
4228,51.470588235294116,25.0
4229,57.00948142414861,25.0
4230,56.03715170278638,25.0
4231,56.84017027863777,25.0
4232,54.85681114551084,25.0
4233,56.44349845201239,25.0
4234,56.8014705882353,25.0
4235,54.5375386996904,25.0
4236,54.663312693498455,25.0
4237,55.5969427244582,25.0
4238,55.64531733746131,25.0
4239,58.218846749226,25.0
4240,56.87403250773994,25.0
4241,57.904411764705884,25.0
4242,58.06888544891641,25.0
4243,56.835332817337466,25.0
4244,55.398606811145505,25.0
4245,58.9734907120743,25.0
4246,59.699109907120736,25.0
4247,55.964589783281724,25.0
4248,60.381191950464384,25.0
4249,58.06888544891641,25.0
4250,54.1311919504644,25.0
4251,58.601006191950475,25.0
4252,55.277670278637764,25.0
4253,59.375,25.0
4254,55.48568111455108,25.0
4255,55.91621517027863,25.0
4256,53.33784829721361,25.0
4257,56.9562693498452,25.0
4258,54.83262383900928,25.0
4259,58.29624613003096,25.0
4260,55.843653250774004,25.0
4261,57.17395510835914,25.0
4262,55.44698142414861,25.0
4263,58.98800309597522,25.0
4264,57.83184984520123,25.0
4265,55.466331269349844,25.0
4266,57.13041795665634,25.0
4267,57.057856037151694,25.0
4268,53.41524767801858,25.0
4269,56.57410990712075,25.0
4270,60.308630030959755,25.0
4271,58.81869195046439,25.0
4272,51.98335913312693,25.0
4273,56.27902476780185,25.0
4274,58.55746904024768,25.0
4275,58.15595975232198,25.0
4276,60.29895510835913,25.0
4277,58.40267027863777,25.0
4278,58.68808049535604,25.0
4279,55.28734520123839,25.0
4280,56.12906346749225,25.0
4281,56.78695820433437,25.0
4282,55.466331269349844,25.0
4283,57.52225232198141,25.0
4284,59.786184210526315,25.0
4285,58.58165634674922,25.0
4286,55.42763157894736,25.0
4287,54.43595201238391,25.0
4288,61.59539473684211,25.0
4289,55.384094427244584,25.0
4290,56.79179566563467,25.0
4291,57.5609520123839,25.0
4292,53.976393188854495,25.0
4293,58.978328173374614,25.0
4294,61.039086687306494,25.0
