sample_id,accuracy,window_size
0,56.95143188854488,150.0
1,56.87403250773993,150.0
2,65.08804179566563,150.0
3,61.13099845201239,150.0
4,59.21536377708978,150.0
5,56.1484133126935,150.0
6,62.72736068111456,150.0
7,57.77863777089784,150.0
8,62.36455108359134,150.0
9,57.672213622291025,150.0
10,62.277476780185744,150.0
11,60.187693498452006,150.0
12,58.397832817337466,150.0
13,57.48355263157894,150.0
14,57.61900154798762,150.0
15,57.99148606811145,150.0
16,56.81598297213623,150.0
17,57.30456656346749,150.0
18,57.54643962848298,150.0
19,59.786184210526315,150.0
20,59.48626160990712,150.0
21,56.627321981424146,150.0
22,55.99845201238389,150.0
23,58.09791021671827,150.0
24,56.085526315789465,150.0
25,59.495936532507734,150.0
26,59.49109907120743,150.0
27,58.85255417956655,150.0
28,57.251354489164086,150.0
29,56.622484520123834,150.0
30,60.52631578947369,150.0
31,56.21613777089784,150.0
32,59.57333591331269,150.0
33,59.09926470588235,150.0
34,58.65421826625387,150.0
35,58.52360681114551,150.0
36,58.67840557275541,150.0
37,58.35429566563468,150.0
38,56.05650154798761,150.0
39,59.350812693498455,150.0
40,57.77863777089783,150.0
41,58.136609907120736,150.0
42,57.73993808049536,150.0
43,60.71981424148606,150.0
44,61.75503095975233,150.0
45,60.434404024767794,150.0
46,61.092298761609904,150.0
47,62.3500386996904,150.0
48,56.67085913312693,150.0
49,55.77109133126936,150.0
50,58.692917956656345,150.0
51,59.96033281733746,150.0
52,59.616873065015476,150.0
53,56.18711300309597,150.0
54,57.846362229102176,150.0
55,56.68537151702786,150.0
56,59.42821207430341,150.0
57,59.9313080495356,150.0
58,63.53521671826626,150.0
59,59.10410216718265,150.0
60,56.26934984520124,150.0
61,58.688080495356026,150.0
62,58.42685758513932,150.0
63,61.66795665634674,150.0
64,59.737809597523224,150.0
65,59.49593653250774,150.0
66,58.209171826625386,150.0
67,61.687306501548,150.0
68,61.09229876160992,150.0
69,57.18846749226007,150.0
70,59.27341331269349,150.0
71,57.24167956656346,150.0
72,57.18846749226006,150.0
73,54.92453560371517,150.0
74,61.32449690402477,150.0
75,59.6797600619195,150.0
76,56.428986068111456,150.0
77,56.91756965944271,150.0
78,59.09926470588236,150.0
79,58.44620743034056,150.0
80,57.03850619195047,150.0
81,57.938273993808046,150.0
82,56.13390092879257,150.0
83,56.85952012383901,150.0
84,60.72465170278639,150.0
85,59.2685758513932,150.0
86,61.41640866873065,150.0
87,59.49593653250775,150.0
88,56.656346749226,150.0
89,60.84075077399381,150.0
90,55.785603715170275,150.0
91,58.69775541795665,150.0
92,58.61551857585138,150.0
93,59.09926470588235,150.0
94,58.06404798761611,150.0
95,60.89396284829721,150.0
96,58.96865325077399,150.0
97,65.43150154798761,150.0
98,58.52360681114551,150.0
99,56.12906346749226,150.0
100,57.299729102167184,150.0
101,60.545665634674926,150.0
102,61.32449690402477,150.0
103,57.401315789473685,150.0
104,60.661764705882355,150.0
105,64.65750773993807,150.0
106,61.687306501547994,150.0
107,59.78134674922601,150.0
108,60.21671826625387,150.0
109,56.443498452012385,150.0
110,59.30727554179566,150.0
111,58.1172600619195,150.0
112,61.329334365325074,150.0
113,61.280959752321984,150.0
114,52.297794117647065,150.0
115,55.51954334365325,150.0
116,61.909829721362215,150.0
117,59.96517027863778,150.0
118,56.16292569659442,150.0
119,60.289280185758514,150.0
120,58.47523219814241,150.0
121,60.19736842105264,150.0
122,54.813273993808046,150.0
123,62.26296439628484,150.0
124,55.50019349845202,150.0
125,56.511222910216716,150.0
126,60.87461300309598,150.0
127,57.1546052631579,150.0
128,62.13235294117647,150.0
129,56.680534055727556,150.0
130,59.37983746130031,150.0
131,60.49245356037151,150.0
132,60.613390092879236,150.0
133,60.240905572755416,150.0
134,60.7391640866873,150.0
135,62.39841331269349,150.0
136,61.11164860681115,150.0
137,61.88564241486068,150.0
138,62.42260061919505,150.0
139,57.7592879256966,150.0
140,61.01006191950464,150.0
141,58.58649380804953,150.0
142,63.883513931888544,150.0
143,59.16215170278638,150.0
144,65.8717105263158,150.0
145,60.695626934984524,150.0
146,57.870549535603715,150.0
147,58.48974458204335,150.0
148,61.077786377708996,150.0
149,60.37635448916408,150.0
150,58.973490712074295,150.0
151,56.54508513931888,150.0
152,59.133126934984524,150.0
153,61.653444272445824,150.0
154,60.77302631578947,150.0
155,58.8235294117647,150.0
156,58.55746904024768,150.0
157,57.1062306501548,150.0
158,63.109520123839005,150.0
159,60.95201238390092,150.0
160,57.4109907120743,150.0
161,63.77225232198142,150.0
162,59.63138544891641,150.0
163,62.00657894736842,150.0
164,61.00522445820434,150.0
165,61.116486068111456,150.0
166,60.221555727554176,150.0
167,61.44059597523219,150.0
168,59.28792569659443,150.0
169,60.347329721362215,150.0
170,58.43653250773994,150.0
171,59.19117647058824,150.0
172,63.777089783281724,150.0
173,59.984520123839,150.0
174,61.556695046439636,150.0
175,56.24516253869969,150.0
176,58.039860681114554,150.0
177,58.40267027863778,150.0
178,61.34868421052632,150.0
179,54.194078947368425,150.0
180,57.59965170278638,150.0
181,55.2921826625387,150.0
182,57.304566563467496,150.0
183,54.4359520123839,150.0
184,60.574690402476776,150.0
185,63.18691950464396,150.0
186,56.83533281733746,150.0
187,56.28386222910216,150.0
188,56.622484520123834,150.0
189,63.496517027863774,150.0
190,58.721942724458195,150.0
191,64.37693498452012,150.0
192,58.28657120743034,150.0
193,59.77167182662539,150.0
194,59.58301083591331,150.0
195,54.9922600619195,150.0
196,62.785410216718276,150.0
197,57.096555727554176,150.0
198,59.5249613003096,150.0
199,56.13390092879256,150.0
200,59.462074303405565,150.0
201,60.55534055727554,150.0
202,57.71575077399381,150.0
203,59.10410216718266,150.0
204,62.50967492260061,150.0
205,61.00522445820434,150.0
206,58.504256965944265,150.0
207,59.8780959752322,150.0
208,59.06056501547988,150.0
209,58.20433436532508,150.0
210,62.12267801857586,150.0
211,60.62306501547988,150.0
212,62.77089783281734,150.0
213,55.58726780185758,150.0
214,56.59829721362229,150.0
215,63.24496904024768,150.0
216,62.949883900928796,150.0
217,59.03154024767802,150.0
218,59.14763931888546,150.0
219,56.661184210526315,150.0
220,58.35913312693498,150.0
221,61.65828173374613,150.0
222,58.30592105263158,150.0
223,60.14415634674923,150.0
224,60.36667956656347,150.0
225,60.30379256965945,150.0
226,56.98529411764705,150.0
227,55.921052631578945,150.0
228,62.06462848297215,150.0
229,59.95065789473684,150.0
230,59.71362229102167,150.0
231,62.891834365325074,150.0
232,60.34732972136223,150.0
233,58.71710526315789,150.0
234,60.30863003095974,150.0
235,61.74051857585138,150.0
236,62.891834365325074,150.0
237,56.40963622291021,150.0
238,57.16911764705883,150.0
239,57.6141640866873,150.0
240,56.31288699690403,150.0
241,57.32391640866873,150.0
242,59.73297213622291,150.0
243,64.13022445820434,150.0
244,61.309984520123834,150.0
245,61.70181888544891,150.0
246,63.12403250773994,150.0
247,56.965944272445824,150.0
248,59.118614551083596,150.0
249,61.01973684210526,150.0
250,59.80553405572755,150.0
251,56.33707430340558,150.0
252,59.86842105263158,150.0
253,59.81037151702787,150.0
254,61.44059597523219,150.0
255,59.15731424148606,150.0
256,60.240905572755416,150.0
257,57.372291021671835,150.0
258,55.921052631578945,150.0
259,59.30243808049537,150.0
260,57.362616099071204,150.0
261,63.13854489164087,150.0
262,62.137190402476776,150.0
263,59.694272445820445,150.0
264,59.79585913312694,150.0
265,60.45859133126935,150.0
266,59.166989164086694,150.0
267,61.38254643962848,150.0
268,56.94175696594428,150.0
269,56.545085139318886,150.0
270,58.9202786377709,150.0
271,58.06404798761611,150.0
272,63.84965170278639,150.0
273,62.99825851393189,150.0
274,59.09442724458204,150.0
275,61.9436919504644,150.0
276,62.31133900928791,150.0
277,60.59887770897832,150.0
278,57.870549535603715,150.0
279,65.10255417956655,150.0
280,59.4765866873065,150.0
281,60.13931888544891,150.0
282,58.891253869969034,150.0
283,61.276122291021665,150.0
284,60.8407507739938,150.0
285,64.7155572755418,150.0
286,55.02612229102167,150.0
287,58.09307275541795,150.0
288,58.576818885448915,150.0
289,59.64106037151703,150.0
290,59.370162538699695,150.0
291,58.054373065015476,150.0
292,60.395704334365334,150.0
293,62.137190402476776,150.0
294,59.7281346749226,150.0
295,61.609907120743024,150.0
296,60.52147832817337,150.0
297,56.999806501547994,150.0
298,58.80417956656347,150.0
299,62.906346749226,150.0
300,61.34868421052632,150.0
301,60.58920278637771,150.0
302,55.853328173374614,150.0
303,58.80901702786378,150.0
304,58.591331269349844,150.0
305,58.70743034055727,150.0
306,57.909249226006196,150.0
307,62.195239938080505,150.0
308,57.58997678018575,150.0
309,57.60448916408669,150.0
310,59.50561145510836,150.0
311,58.625193498452006,150.0
312,59.00735294117647,150.0
313,57.851199690402474,150.0
314,61.227747678018595,150.0
315,57.1062306501548,150.0
316,60.41505417956657,150.0
317,61.65828173374613,150.0
318,58.53328173374612,150.0
319,56.92724458204334,150.0
320,60.92298761609907,150.0
321,57.53676470588235,150.0
322,56.622484520123834,150.0
323,55.38409442724458,150.0
324,59.97484520123839,150.0
325,61.058436532507734,150.0
326,61.45994582043343,150.0
327,59.408862229102176,150.0
328,62.96439628482972,150.0
329,55.195433436532504,150.0
330,58.03502321981424,150.0
331,65.28637770897834,150.0
332,58.997678018575854,150.0
333,59.82004643962848,150.0
334,59.820046439628484,150.0
335,62.67414860681115,150.0
336,59.046052631578945,150.0
337,62.05011609907121,150.0
338,60.100619195046434,150.0
339,57.328753869969034,150.0
340,56.43382352941177,150.0
341,59.4765866873065,150.0
342,59.331462848297214,150.0
343,65.18962848297213,150.0
344,59.50077399380806,150.0
345,57.26586687306502,150.0
346,60.023219814241486,150.0
347,60.52147832817337,150.0
348,57.57546439628483,150.0
349,58.15595975232197,150.0
350,58.93962848297213,150.0
351,59.21536377708978,150.0
352,60.49245356037152,150.0
353,58.910603715170275,150.0
354,58.175309597523224,150.0
355,59.21536377708978,150.0
356,57.251354489164086,150.0
357,65.04450464396284,150.0
358,65.38312693498452,150.0
359,59.96517027863777,150.0
360,56.59829721362229,150.0
361,61.24226006191951,150.0
362,62.21942724458205,150.0
363,63.69001547987618,150.0
364,60.182856037151694,150.0
365,59.360487616099064,150.0
366,58.15595975232197,150.0
367,59.15731424148607,150.0
368,58.997678018575854,150.0
369,59.76199690402478,150.0
370,60.29895510835913,150.0
371,58.28173374613002,150.0
372,57.807662538699695,150.0
373,56.07101393188855,150.0
374,58.59133126934984,150.0
375,58.276896284829725,150.0
376,56.26934984520123,150.0
377,57.47387770897832,150.0
378,58.37848297213622,150.0
379,58.291408668730654,150.0
380,59.61203560371517,150.0
381,59.597523219814235,150.0
382,57.29489164086687,150.0
383,55.63080495356037,150.0
384,59.278250773993804,150.0
385,57.49322755417957,150.0
386,60.56985294117647,150.0
387,57.64318885448916,150.0
388,60.03773219814241,150.0
389,57.39164086687307,150.0
390,56.95143188854489,150.0
391,59.39918730650155,150.0
392,59.30727554179566,150.0
393,64.75425696594426,150.0
394,58.765479876161,150.0
395,57.135255417956664,150.0
396,59.007352941176464,150.0
397,62.81443498452012,150.0
398,59.01219040247677,150.0
399,58.542956656346746,150.0
400,62.55321207430341,150.0
401,62.65963622291021,150.0
402,58.41234520123839,150.0
403,57.58997678018575,150.0
404,61.774380804953566,150.0
405,59.33146284829722,150.0
406,57.14009287925696,150.0
407,65.49922600619196,150.0
408,63.39493034055728,150.0
409,55.74690402476781,150.0
410,57.84636222910217,150.0
411,55.500193498452006,150.0
412,57.54160216718267,150.0
413,62.58223684210526,150.0
414,63.0563080495356,150.0
415,62.92085913312695,150.0
416,59.75232198142415,150.0
417,57.169117647058826,150.0
418,57.17879256965945,150.0
419,58.86706656346749,150.0
420,55.76141640866873,150.0
421,61.900154798761605,150.0
422,61.484133126934985,150.0
423,61.01006191950464,150.0
424,58.29624613003096,150.0
425,57.49322755417957,150.0
426,57.99148606811145,150.0
427,63.16756965944275,150.0
428,60.3328173374613,150.0
429,58.32527089783281,150.0
430,58.325270897832816,150.0
431,58.75096749226007,150.0
432,56.01780185758514,150.0
433,61.450270897832816,150.0
434,61.934017027863774,150.0
435,58.67356811145511,150.0
436,61.52767027863777,150.0
437,59.931308049535616,150.0
438,55.940402476780186,150.0
439,63.20626934984521,150.0
440,59.45239938080495,150.0
441,57.381965944272444,150.0
442,60.89396284829722,150.0
443,59.181501547987615,150.0
444,59.91195820433437,150.0
445,62.558049535603715,150.0
446,59.684597523219814,150.0
447,60.09578173374613,150.0
448,60.511803405572756,150.0
449,56.3515866873065,150.0
450,60.29895510835913,150.0
451,60.594040247678016,150.0
452,57.22232972136223,150.0
453,58.29624613003096,150.0
454,63.44330495356036,150.0
455,54.44078947368421,150.0
456,57.44969040247678,150.0
457,58.24303405572755,150.0
458,59.181501547987615,150.0
459,56.50154798761611,150.0
460,63.21594427244581,150.0
461,60.14415634674923,150.0
462,54.30050309597523,150.0
463,58.53811919504644,150.0
464,58.755804953560364,150.0
465,58.712267801857585,150.0
466,60.54082817337461,150.0
467,62.654798761609904,150.0
468,55.56308049535604,150.0
469,61.556695046439636,150.0
470,62.466137770897845,150.0
471,58.83320433436533,150.0
472,63.72387770897832,150.0
473,62.13235294117646,150.0
474,58.86706656346749,150.0
475,57.20781733746131,150.0
476,62.49516253869968,150.0
477,54.59558823529411,150.0
478,61.24226006191951,150.0
479,58.247871517027846,150.0
480,59.10893962848298,150.0
481,59.25406346749226,150.0
482,62.0984907120743,150.0
483,60.869775541795676,150.0
484,61.31482198142414,150.0
485,63.74322755417957,150.0
486,57.95278637770898,150.0
487,55.2921826625387,150.0
488,60.79721362229103,150.0
489,59.09926470588236,150.0
490,59.365325077399376,150.0
491,57.13525541795666,150.0
492,60.361842105263165,150.0
493,60.71013931888545,150.0
494,57.5609520123839,150.0
495,56.86919504643963,150.0
496,58.18982198142414,150.0
497,62.05011609907121,150.0
498,59.955495356037154,150.0
499,56.288699690402474,150.0
500,56.87403250773994,150.0
501,56.56443498452012,150.0
502,59.370162538699695,150.0
503,59.17666408668729,150.0
504,54.73587461300309,150.0
505,60.74883900928793,150.0
506,60.2312306501548,150.0
507,59.48626160990711,150.0
508,58.30108359133127,150.0
509,54.8858359133127,150.0
510,59.51044891640866,150.0
511,58.605843653250766,150.0
512,59.50561145510836,150.0
513,53.966718266253864,150.0
514,58.13177244582044,150.0
515,58.833204334365334,150.0
516,56.148413312693506,150.0
517,57.46420278637771,150.0
518,57.889899380804955,150.0
519,56.68053405572756,150.0
520,57.57546439628482,150.0
521,58.189821981424146,150.0
522,58.33494582043344,150.0
523,57.92859907120743,150.0
524,59.38951238390092,150.0
525,61.70665634674923,150.0
526,57.84152476780186,150.0
527,57.90924922600618,150.0
528,57.35777863777089,150.0
529,62.408088235294116,150.0
530,56.68537151702787,150.0
531,56.699883900928796,150.0
532,58.610681114551085,150.0
533,56.59345975232198,150.0
534,59.35081269349844,150.0
535,54.614938080495364,150.0
536,59.67008513931888,150.0
537,62.51451238390093,150.0
538,62.461300309597526,150.0
539,59.34597523219815,150.0
540,58.320433436532504,150.0
541,59.55882352941176,150.0
542,57.70123839009288,150.0
543,58.3155959752322,150.0
544,63.38525541795664,150.0
545,61.203560371517035,150.0
546,57.02883126934984,150.0
547,59.568498452012385,150.0
548,58.63970588235294,150.0
549,57.88022445820433,150.0
550,63.42879256965945,150.0
551,62.287151702786375,150.0
552,60.71013931888545,150.0
553,58.76064241486068,150.0
554,59.69910990712074,150.0
555,62.10816563467491,150.0
556,57.502902476780186,150.0
557,58.044698142414866,150.0
558,57.36745356037151,150.0
559,61.295472136222905,150.0
560,60.057082043343655,150.0
561,56.99013157894736,150.0
562,62.3016640866873,150.0
563,63.757739938080505,150.0
564,60.057082043343655,150.0
565,57.24167956656348,150.0
566,57.44969040247678,150.0
567,60.31830495356038,150.0
568,58.6203560371517,150.0
569,57.93827399380805,150.0
570,60.77786377708979,150.0
571,60.20704334365325,150.0
572,58.88157894736842,150.0
573,59.34113777089784,150.0
574,58.54295665634675,150.0
575,58.48974458204333,150.0
576,56.78695820433436,150.0
577,60.55050309597523,150.0
578,55.32604489164086,150.0
579,61.6921439628483,150.0
580,58.678405572755416,150.0
581,59.050890092879264,150.0
582,61.66795665634675,150.0
583,59.800696594427244,150.0
584,60.434404024767794,150.0
585,63.62229102167183,150.0
586,61.024574303405565,150.0
587,58.126934984520126,150.0
588,64.66234520123837,150.0
589,61.537345201238395,150.0
590,55.42279411764706,150.0
591,60.110294117647065,150.0
592,56.33223684210526,150.0
593,53.56037151702786,150.0
594,61.7405185758514,150.0
595,59.35565015479877,150.0
596,60.01354489164086,150.0
597,61.37770897832817,150.0
598,57.79798761609907,150.0
599,58.659055727554176,150.0
600,60.124806501547994,150.0
601,54.47465170278638,150.0
602,58.84771671826625,150.0
603,59.48626160990712,150.0
604,57.37712848297213,150.0
605,57.435178018575854,150.0
606,56.612809597523224,150.0
607,56.903057275541805,150.0
608,58.770317337461314,150.0
609,56.927244582043336,150.0
610,59.433049535603715,150.0
611,59.85874613003095,150.0
612,60.15866873065015,150.0
613,60.45375386996904,150.0
614,58.533281733746136,150.0
615,61.261609907120736,150.0
616,57.14976780185758,150.0
617,59.79102167182663,150.0
618,59.13796439628482,150.0
619,63.515866873065015,150.0
620,58.02051083591331,150.0
621,56.6031346749226,150.0
622,62.8531346749226,150.0
623,59.29276315789474,150.0
624,60.95201238390093,150.0
625,60.434404024767794,150.0
626,58.44620743034056,150.0
627,58.48006965944273,150.0
628,61.934017027863774,150.0
629,58.50909442724458,150.0
630,62.05495356037152,150.0
631,60.50212848297213,150.0
632,57.17395510835914,150.0
633,60.20220588235294,150.0
634,59.86358359133127,150.0
635,62.96439628482973,150.0
636,62.24845201238389,150.0
637,61.03908668730651,150.0
638,64.06250000000001,150.0
639,56.86435758513931,150.0
640,56.48219814241487,150.0
641,61.232585139318886,150.0
642,57.83184984520125,150.0
643,56.317724458204324,150.0
644,61.837267801857585,150.0
645,58.86706656346749,150.0
646,64.09152476780184,150.0
647,59.2250386996904,150.0
648,60.6279024767802,150.0
649,57.47387770897833,150.0
650,59.650735294117645,150.0
651,59.297600619195045,150.0
652,61.996904024767794,150.0
653,58.03986068111455,150.0
654,60.057082043343655,150.0
655,59.29276315789474,150.0
656,59.921633126934985,150.0
657,56.8546826625387,150.0
658,61.595394736842124,150.0
659,60.47794117647059,150.0
660,59.113777089783284,150.0
661,58.24303405572755,150.0
662,59.91679566563467,150.0
663,60.68111455108359,150.0
664,61.56153250773994,150.0
665,62.558049535603715,150.0
666,57.83668730650155,150.0
667,61.42608359133126,150.0
668,60.54566563467491,150.0
669,56.06133900928792,150.0
670,59.3798374613003,150.0
671,58.63486842105263,150.0
672,62.504837461300305,150.0
673,57.701238390092875,150.0
674,60.1296439628483,150.0
675,59.59268575851394,150.0
676,58.05921052631579,150.0
677,62.654798761609904,150.0
678,59.20568885448916,150.0
679,59.40402476780186,150.0
680,57.69640092879256,150.0
681,58.32527089783282,150.0
682,57.236842105263165,150.0
683,59.03154024767802,150.0
684,61.30998452012385,150.0
685,57.54643962848298,150.0
686,60.10061919504645,150.0
687,55.58726780185758,150.0
688,63.66582817337461,150.0
689,62.509674922600624,150.0
690,58.359133126934985,150.0
691,58.862229102167184,150.0
692,62.77573529411763,150.0
693,62.08397832817337,150.0
694,57.367453560371516,150.0
695,56.859520123839005,150.0
696,61.97271671826625,150.0
697,59.71362229102167,150.0
698,57.31424148606811,150.0
699,60.81656346749225,150.0
700,57.73026315789475,150.0
701,64.31888544891642,150.0
702,63.58842879256967,150.0
703,56.05650154798761,150.0
704,64.468846749226,150.0
705,58.039860681114554,150.0
706,57.88989938080495,150.0
707,59.88293343653251,150.0
708,60.26993034055728,150.0
709,60.99071207430341,150.0
710,62.97407120743033,150.0
711,61.82759287925696,150.0
712,59.650735294117645,150.0
713,59.71362229102167,150.0
714,57.483552631578945,150.0
715,60.96652476780185,150.0
716,59.26373839009288,150.0
717,57.26102941176471,150.0
718,56.18227554179567,150.0
719,59.5249613003096,150.0
720,62.708010835913306,150.0
721,59.16698916408669,150.0
722,60.453753869969034,150.0
723,58.528444272445824,150.0
724,59.670085139318886,150.0
725,57.38680340557275,150.0
726,59.61687306501548,150.0
727,59.099264705882355,150.0
728,55.14705882352942,150.0
729,61.37770897832817,150.0
730,59.26373839009289,150.0
731,60.04256965944273,150.0
732,59.70878482972135,150.0
733,60.58920278637771,150.0
734,58.97832817337461,150.0
735,60.995549535603715,150.0
736,58.48974458204334,150.0
737,57.115905572755416,150.0
738,57.86571207430342,150.0
739,60.19736842105263,150.0
740,62.32585139318885,150.0
741,59.742647058823515,150.0
742,60.41505417956657,150.0
743,58.38815789473684,150.0
744,58.43653250773995,150.0
745,57.033668730650156,150.0
746,56.622484520123834,150.0
747,60.5843653250774,150.0
748,58.47039473684211,150.0
749,57.89473684210526,150.0
750,62.475812693498455,150.0
751,59.800696594427244,150.0
752,55.65499226006192,150.0
753,58.86222910216719,150.0
754,57.04818111455108,150.0
755,61.566369969040245,150.0
756,56.84017027863777,150.0
757,57.111068111455104,150.0
758,57.372291021671835,150.0
759,61.37287151702787,150.0
760,57.1594427244582,150.0
761,56.63699690402477,150.0
762,59.83939628482972,150.0
763,62.77573529411763,150.0
764,61.203560371517035,150.0
765,61.51315789473685,150.0
766,57.63351393188855,150.0
767,61.70665634674923,150.0
768,62.23393962848298,150.0
769,59.47658668730651,150.0
770,57.92859907120742,150.0
771,56.525735294117645,150.0
772,56.5015479876161,150.0
773,59.481424148606806,150.0
774,62.71768575851394,150.0
775,57.715750773993804,150.0
776,58.107585139318886,150.0
777,63.578753869969034,150.0
778,59.46207430340558,150.0
779,56.3999613003096,150.0
780,56.2983746130031,150.0
781,57.33359133126936,150.0
782,60.43924148606811,150.0
783,57.78831269349845,150.0
784,62.10816563467491,150.0
785,65.55727554179568,150.0
786,64.13506191950465,150.0
787,58.39299535603715,150.0
788,57.01915634674922,150.0
789,56.41931114551084,150.0
790,63.457817337461314,150.0
791,58.49941950464397,150.0
792,59.86358359133127,150.0
793,60.37635448916408,150.0
794,59.75715944272446,150.0
795,62.253289473684205,150.0
796,58.71710526315789,150.0
797,56.999806501547994,150.0
798,61.392221362229094,150.0
799,59.80553405572755,150.0
800,58.04953560371518,150.0
801,58.39299535603715,150.0
802,55.703366873065015,150.0
803,58.95414086687306,150.0
804,57.8125,150.0
805,56.327399380804955,150.0
806,63.43846749226006,150.0
807,61.34868421052632,150.0
808,60.50212848297213,150.0
809,61.150348297213625,150.0
810,63.4578173374613,150.0
811,62.62577399380805,150.0
812,58.34945820433436,150.0
813,58.90576625386998,150.0
814,59.80553405572755,150.0
815,57.86571207430342,150.0
816,63.196594427244584,150.0
817,58.70259287925697,150.0
818,59.771671826625386,150.0
819,57.381965944272444,150.0
820,62.60642414860681,150.0
821,58.397832817337466,150.0
822,55.41311919504644,150.0
823,58.04953560371517,150.0
824,58.78482972136222,150.0
825,59.39434984520124,150.0
826,58.55263157894736,150.0
827,56.92724458204334,150.0
828,57.652863777089784,150.0
829,57.9140866873065,150.0
830,57.70607585139319,150.0
831,57.19330495356038,150.0
832,62.35971362229103,150.0
833,59.34113777089783,150.0
834,58.71226780185758,150.0
835,59.84423374613003,150.0
836,60.942337461300305,150.0
837,61.79373065015479,150.0
838,59.466911764705884,150.0
839,56.82082043343653,150.0
840,60.327979876160995,150.0
841,58.25754643962848,150.0
842,62.175890092879236,150.0
843,58.69291795665635,150.0
844,63.24013157894736,150.0
845,58.71710526315789,150.0
846,58.45588235294117,150.0
847,59.360487616099064,150.0
848,58.32043343653251,150.0
849,61.11648606811144,150.0
850,60.758513931888544,150.0
851,66.26838235294119,150.0
852,60.695626934984524,150.0
853,53.4781346749226,150.0
854,57.135255417956664,150.0
855,60.46342879256966,150.0
856,60.36667956656347,150.0
857,55.83397832817337,150.0
858,62.02109133126935,150.0
859,59.017027863777095,150.0
860,61.547020123839005,150.0
861,57.64802631578948,150.0
862,63.31753095975232,150.0
863,58.65905572755418,150.0
864,61.27128482972136,150.0
865,60.453753869969034,150.0
866,60.61339009287925,150.0
867,55.67434210526315,150.0
868,61.15034829721361,150.0
869,54.31985294117647,150.0
870,61.31965944272446,150.0
871,59.636222910216716,150.0
872,59.99903250773993,150.0
873,58.65421826625387,150.0
874,54.310178018575854,150.0
875,60.45859133126934,150.0
876,60.603715170278626,150.0
877,57.048181114551085,150.0
878,58.43653250773994,150.0
879,57.778637770897824,150.0
880,59.39434984520125,150.0
881,57.527089783281724,150.0
882,60.82623839009288,150.0
883,60.003869969040245,150.0
884,58.363970588235304,150.0
885,60.976199690402474,150.0
886,62.06462848297215,150.0
887,62.258126934984524,150.0
888,59.39918730650155,150.0
889,59.48142414860681,150.0
890,62.52902476780185,150.0
891,59.505611455108365,150.0
892,61.517995356037154,150.0
893,61.542182662538714,150.0
894,59.05572755417957,150.0
895,57.0094814241486,150.0
896,58.27205882352941,150.0
897,63.02728328173374,150.0
898,57.24167956656347,150.0
899,57.981811145510825,150.0
900,58.89125386996904,150.0
901,62.72736068111455,150.0
902,52.81056501547988,150.0
903,55.650154798761605,150.0
904,61.72600619195047,150.0
905,57.97697368421053,150.0
906,58.659055727554176,150.0
907,56.15808823529411,150.0
908,59.04121517027864,150.0
909,56.22097523219814,150.0
910,57.87538699690402,150.0
911,61.45994582043343,150.0
912,60.20220588235294,150.0
913,56.012964396284836,150.0
914,57.83184984520124,150.0
915,57.64318885448917,150.0
916,58.80901702786378,150.0
917,62.87732198142413,150.0
918,60.64725232198142,150.0
919,56.8063080495356,150.0
920,59.88777089783281,150.0
921,61.4454334365325,150.0
922,56.893382352941174,150.0
923,56.07101393188856,150.0
924,58.95414086687307,150.0
925,60.74400154798762,150.0
926,58.27689628482972,150.0
927,56.25483746130031,150.0
928,59.20568885448916,150.0
929,58.91060371517028,150.0
930,61.01006191950464,150.0
931,60.8891253869969,150.0
932,60.32314241486068,150.0
933,59.73297213622291,150.0
934,59.829721362229115,150.0
935,61.06811145510836,150.0
936,61.295472136222905,150.0
937,55.306695046439636,150.0
938,59.24922600619195,150.0
939,61.35835913312694,150.0
940,57.42550309597522,150.0
941,55.91621517027864,150.0
942,60.7875386996904,150.0
943,62.34036377708978,150.0
944,61.503482972136226,150.0
945,60.63273993808049,150.0
946,57.55611455108359,150.0
947,61.784055727554176,150.0
948,57.99632352941176,150.0
949,59.72813467492259,150.0
950,61.99690402476781,150.0
951,59.13312693498452,150.0
952,60.06675696594428,150.0
953,58.45588235294118,150.0
954,56.695046439628484,150.0
955,60.76335139318886,150.0
956,55.340557275541805,150.0
957,62.32585139318886,150.0
958,64.64299535603715,150.0
959,59.65557275541795,150.0
960,59.76683436532508,150.0
961,61.17937306501549,150.0
962,55.29702012383901,150.0
963,59.350812693498455,150.0
964,60.18285603715171,150.0
965,58.03502321981424,150.0
966,60.86493808049536,150.0
967,60.598877708978335,150.0
968,60.14899380804953,150.0
969,61.40673374613004,150.0
970,59.65073529411763,150.0
971,60.02321981424149,150.0
972,58.48006965944272,150.0
973,57.98181114551084,150.0
974,56.540247678018574,150.0
975,57.89957430340557,150.0
976,57.19330495356037,150.0
977,57.546439628482965,150.0
978,54.88099845201238,150.0
979,63.452979876160995,150.0
980,61.30030959752321,150.0
981,61.890479876160995,150.0
982,60.57469040247679,150.0
983,57.17395510835914,150.0
984,61.98722910216717,150.0
985,62.78541021671826,150.0
986,59.500773993808046,150.0
987,60.434404024767794,150.0
988,60.92782507739939,150.0
989,59.82004643962848,150.0
990,58.76547987616099,150.0
991,58.97832817337461,150.0
992,59.18150154798762,150.0
993,60.850425696594435,150.0
994,58.89609133126935,150.0
995,59.86358359133127,150.0
996,57.44485294117647,150.0
997,59.24438854489164,150.0
998,57.328753869969034,150.0
999,61.000386996904034,150.0
1000,62.35971362229102,150.0
1001,59.90712074303405,150.0
1002,61.242260061919495,150.0
1003,58.4703947368421,150.0
1004,58.75096749226006,150.0
1005,57.386803405572756,150.0
1006,60.061919504643974,150.0
1007,58.13177244582044,150.0
1008,65.08320433436533,150.0
1009,56.578947368421055,150.0
1010,55.800116099071204,150.0
1011,58.85255417956656,150.0
1012,58.82352941176471,150.0
1013,59.786184210526315,150.0
1014,60.22639318885449,150.0
1015,55.084171826625386,150.0
1016,60.327979876160995,150.0
1017,59.399187306501545,150.0
1018,56.83049535603715,150.0
1019,57.1594427244582,150.0
1020,58.02534829721362,150.0
1021,60.39570433436532,150.0
1022,54.55205108359133,150.0
1023,57.28521671826625,150.0
1024,57.93827399380805,150.0
1025,60.642414860681114,150.0
1026,60.3328173374613,150.0
1027,60.298955108359145,150.0
1028,62.91118421052632,150.0
1029,63.06114551083592,150.0
1030,61.169698142414866,150.0
1031,56.327399380804955,150.0
1032,56.15325077399381,150.0
1033,60.79721362229102,150.0
1034,61.36803405572755,150.0
1035,58.5187693498452,150.0
1036,61.30998452012385,150.0
1037,61.68246904024768,150.0
1038,59.86358359133127,150.0
1039,58.55263157894737,150.0
1040,59.22987616099071,150.0
1041,61.43092105263158,150.0
1042,59.85874613003096,150.0
1043,57.93343653250774,150.0
1044,60.82623839009288,150.0
1045,59.18150154798762,150.0
1046,59.04121517027865,150.0
1047,59.984520123839005,150.0
1048,58.721942724458195,150.0
1049,62.85797213622292,150.0
1050,59.75232198142415,150.0
1051,61.039086687306494,150.0
1052,57.0578560371517,150.0
1053,57.817337461300305,150.0
1054,58.22852167182663,150.0
1055,60.908475232198136,150.0
1056,62.36455108359132,150.0
1057,67.02786377708978,150.0
1058,55.558243034055735,150.0
1059,64.03831269349844,150.0
1060,58.494582043343655,150.0
1061,59.970007739938076,150.0
1062,59.09442724458204,150.0
1063,58.60100619195046,150.0
1064,60.08126934984521,150.0
1065,61.67763157894736,150.0
1066,62.17589009287925,150.0
1067,61.12132352941177,150.0
1068,60.105456656346746,150.0
1069,60.63757739938081,150.0
1070,58.2672213622291,150.0
1071,60.23606811145511,150.0
1072,60.10061919504644,150.0
1073,62.6983359133127,150.0
1074,60.037732198142415,150.0
1075,57.89957430340557,150.0
1076,58.14628482972137,150.0
1077,60.405379256965944,150.0
1078,60.724651702786375,150.0
1079,58.84771671826625,150.0
1080,60.32314241486068,150.0
1081,57.90441176470588,150.0
1082,60.03289473684211,150.0
1083,59.38467492260061,150.0
1084,58.17530959752323,150.0
1085,63.74806501547988,150.0
1086,55.99361455108359,150.0
1087,55.42279411764705,150.0
1088,58.1656346749226,150.0
1089,64.05282507739938,150.0
1090,57.096555727554176,150.0
1091,59.37499999999999,150.0
1092,61.387383900928796,150.0
1093,57.59481424148606,150.0
1094,60.41989164086687,150.0
1095,59.42337461300309,150.0
1096,60.44891640866872,150.0
1097,58.944465944272444,150.0
1098,60.095781733746136,150.0
1099,59.11377708978327,150.0
1100,56.574109907120736,150.0
1101,61.43575851393189,150.0
1102,60.49245356037152,150.0
1103,58.11726006191951,150.0
1104,59.11861455108358,150.0
1105,58.06888544891641,150.0
1106,55.422794117647065,150.0
1107,55.78076625386998,150.0
1108,57.12558049535603,150.0
1109,63.23529411764706,150.0
1110,56.26451238390093,150.0
1111,57.14976780185758,150.0
1112,60.21188080495356,150.0
1113,55.48084365325077,150.0
1114,58.19465944272446,150.0
1115,58.26722136222911,150.0
1116,60.574690402476776,150.0
1117,55.56308049535603,150.0
1118,59.9796826625387,150.0
1119,59.079914860681114,150.0
1120,58.29624613003095,150.0
1121,60.41989164086687,150.0
1122,62.23877708978327,150.0
1123,62.408088235294116,150.0
1124,61.18904798761609,150.0
1125,58.039860681114554,150.0
1126,58.66389318885448,150.0
1127,62.54837461300309,150.0
1128,58.99767801857586,150.0
1129,59.21052631578948,150.0
1130,57.788312693498455,150.0
1131,62.93053405572756,150.0
1132,58.460719814241486,150.0
1133,57.72542569659443,150.0
1134,57.386803405572756,150.0
1135,59.858746130030966,150.0
1136,60.61339009287925,150.0
1137,58.89125386996905,150.0
1138,62.296826625386984,150.0
1139,62.321013931888544,150.0
1140,58.06888544891642,150.0
1141,61.01973684210526,150.0
1142,62.161377708978335,150.0
1143,53.21207430340557,150.0
1144,59.44756191950465,150.0
1145,60.81656346749225,150.0
1146,56.9562693498452,150.0
1147,55.84365325077399,150.0
1148,60.5843653250774,150.0
1149,55.57275541795666,150.0
1150,58.40750773993808,150.0
1151,54.60042569659443,150.0
1152,59.612035603715164,150.0
1153,61.52767027863777,150.0
1154,56.76277089783282,150.0
1155,55.85816563467492,150.0
1156,61.76954334365323,150.0
1157,60.269930340557266,150.0
1158,58.47039473684211,150.0
1159,60.49729102167181,150.0
1160,55.96942724458205,150.0
1161,61.93885448916408,150.0
1162,59.51044891640866,150.0
1163,59.83455882352941,150.0
1164,57.74961300309598,150.0
1165,56.97561919504645,150.0
1166,57.739938080495364,150.0
1167,59.58301083591331,150.0
1168,59.69427244582044,150.0
1169,58.426857585139324,150.0
1170,57.91892414860681,150.0
1171,58.49941950464397,150.0
1172,59.66041021671827,150.0
1173,60.98103715170278,150.0
1174,61.25677244582045,150.0
1175,54.98258513931889,150.0
1176,59.22020123839009,150.0
1177,56.254837461300305,150.0
1178,59.75715944272447,150.0
1179,59.31695046439629,150.0
1180,63.3030185758514,150.0
1181,62.23393962848298,150.0
1182,63.124032507739926,150.0
1183,60.31830495356038,150.0
1184,64.41079721362229,150.0
1185,62.67414860681115,150.0
1186,61.726006191950454,150.0
1187,57.07720588235294,150.0
1188,58.55263157894736,150.0
1189,59.76199690402478,150.0
1190,60.45375386996904,150.0
1191,59.19117647058824,150.0
1192,59.316950464396285,150.0
1193,60.86010061919505,150.0
1194,54.32952786377709,150.0
1195,60.05708204334365,150.0
1196,60.26993034055728,150.0
1197,59.39434984520123,150.0
1198,58.944465944272444,150.0
1199,59.78618421052631,150.0
1200,58.92511609907121,150.0
1201,58.07856037151703,150.0
1202,60.023219814241486,150.0
1203,57.449690402476776,150.0
1204,56.05650154798762,150.0
1205,54.35371517027863,150.0
1206,58.407507739938076,150.0
1207,61.6969814241486,150.0
1208,60.221555727554176,150.0
1209,57.67705108359132,150.0
1210,59.757159442724465,150.0
1211,53.96188080495356,150.0
1212,60.023219814241486,150.0
1213,59.31211300309598,150.0
1214,59.9796826625387,150.0
1215,58.44620743034055,150.0
1216,60.77786377708978,150.0
1217,57.95762383900928,150.0
1218,64.32856037151703,150.0
1219,57.991486068111456,150.0
1220,61.30514705882353,150.0
1221,61.092298761609904,150.0
1222,56.48703560371517,150.0
1223,53.690982972136226,150.0
1224,61.00522445820434,150.0
1225,59.15731424148606,150.0
1226,63.23045665634674,150.0
1227,60.613390092879264,150.0
1228,59.079914860681114,150.0
1229,63.20143188854489,150.0
1230,57.14493034055727,150.0
1231,60.3811919504644,150.0
1232,58.76064241486068,150.0
1233,60.25058049535604,150.0
1234,62.42743808049536,150.0
1235,53.04760061919505,150.0
1236,59.133126934984524,150.0
1237,63.78676470588237,150.0
1238,63.22078173374613,150.0
1239,57.61416408668731,150.0
1240,58.13660990712075,150.0
1241,57.120743034055735,150.0
1242,55.10835913312693,150.0
1243,58.13177244582044,150.0
1244,55.059984520123834,150.0
1245,58.81869195046439,150.0
1246,62.04044117647059,150.0
1247,59.587848297213625,150.0
1248,63.33688080495358,150.0
1249,59.781346749226,150.0
1250,61.73568111455108,150.0
1251,58.368808049535616,150.0
1252,55.90170278637771,150.0
1253,61.440595975232206,150.0
1254,61.46962074303404,150.0
1255,60.77302631578947,150.0
1256,58.126934984520126,150.0
1257,55.13254643962849,150.0
1258,59.33146284829722,150.0
1259,61.1938854489164,150.0
1260,61.20839783281734,150.0
1261,58.09307275541795,150.0
1262,63.39009287925696,150.0
1263,60.357004643962846,150.0
1264,60.61339009287925,150.0
1265,60.729489164086694,150.0
1266,57.406153250774,150.0
1267,54.48432662538699,150.0
1268,58.10274767801858,150.0
1269,59.49593653250775,150.0
1270,61.52767027863777,150.0
1271,60.14899380804953,150.0
1272,66.27805727554181,150.0
1273,63.482004643962846,150.0
1274,57.7109133126935,150.0
1275,59.34597523219815,150.0
1276,57.299729102167184,150.0
1277,59.20085139318885,150.0
1278,59.065402476780186,150.0
1279,56.33707430340557,150.0
1280,61.7405185758514,150.0
1281,61.029411764705884,150.0
1282,59.59268575851393,150.0
1283,61.35352167182662,150.0
1284,57.159442724458195,150.0
1285,58.82352941176472,150.0
1286,60.50696594427244,150.0
1287,58.94930340557275,150.0
1288,56.34191176470588,150.0
1289,63.71420278637771,150.0
1290,58.55263157894737,150.0
1291,61.856617647058826,150.0
1292,64.28986068111456,150.0
1293,61.029411764705884,150.0
1294,61.22774767801858,150.0
1295,62.233939628482965,150.0
1296,59.413699690402474,150.0
1297,59.336300309597526,150.0
1298,55.95975232198142,150.0
1299,62.63061145510836,150.0
1300,59.055727554179555,150.0
1301,59.215363777089784,150.0
1302,62.137190402476776,150.0
1303,62.775735294117645,150.0
1304,55.10835913312694,150.0
1305,58.59616873065015,150.0
1306,60.0812693498452,150.0
1307,61.580882352941174,150.0
1308,57.03850619195046,150.0
1309,56.1000386996904,150.0
1310,61.00522445820434,150.0
1311,56.017801857585134,150.0
1312,57.38196594427246,150.0
1313,60.03773219814242,150.0
1314,57.856037151702786,150.0
1315,59.05089009287926,150.0
1316,56.932082043343655,150.0
1317,60.63273993808049,150.0
1318,57.99632352941177,150.0
1319,57.904411764705884,150.0
1320,56.762770897832816,150.0
1321,60.250580495356026,150.0
1322,58.7703173374613,150.0
1323,57.28521671826625,150.0
1324,61.6969814241486,150.0
1325,60.1344814241486,150.0
1326,59.312113003095966,150.0
1327,59.01219040247678,150.0
1328,57.97213622291023,150.0
1329,60.642414860681114,150.0
1330,58.43169504643962,150.0
1331,61.44059597523219,150.0
1332,60.88428792569658,150.0
1333,54.79392414860681,150.0
1334,59.53947368421052,150.0
1335,58.27689628482972,150.0
1336,57.517414860681114,150.0
1337,58.75580495356037,150.0
1338,57.817337461300305,150.0
1339,59.36532507739939,150.0
1340,59.641060371517014,150.0
1341,57.8125,150.0
1342,64.64299535603716,150.0
1343,60.25058049535604,150.0
1344,59.181501547987615,150.0
1345,59.91679566563467,150.0
1346,61.261609907120736,150.0
1347,59.05572755417956,150.0
1348,55.85332817337461,150.0
1349,60.168343653250766,150.0
1350,55.4469814241486,150.0
1351,55.70820433436532,150.0
1352,58.63003095975233,150.0
1353,55.316369969040245,150.0
1354,56.78695820433436,150.0
1355,57.37712848297213,150.0
1356,61.363196594427244,150.0
1357,59.786184210526315,150.0
1358,62.05495356037152,150.0
1359,57.686726006191954,150.0
1360,58.30108359133127,150.0
1361,61.03424922600619,150.0
1362,56.26934984520124,150.0
1363,60.284442724458195,150.0
1364,60.898800309597526,150.0
1365,59.36048761609907,150.0
1366,62.42260061919504,150.0
1367,55.18575851393188,150.0
1368,60.947174922600624,150.0
1369,62.69833591331268,150.0
1370,60.31346749226006,150.0
1371,60.598877708978335,150.0
1372,58.339783281733745,150.0
1373,54.227941176470594,150.0
1374,58.58649380804953,150.0
1375,59.48626160990712,150.0
1376,61.595394736842124,150.0
1377,60.68595201238389,150.0
1378,59.69427244582043,150.0
1379,60.032894736842096,150.0
1380,60.913312693498455,150.0
1381,60.424729102167184,150.0
1382,56.757933436532504,150.0
1383,60.023219814241486,150.0
1384,58.412345201238395,150.0
1385,57.362616099071204,150.0
1386,59.650735294117645,150.0
1387,61.52767027863777,150.0
1388,59.29760061919505,150.0
1389,60.34732972136223,150.0
1390,58.58165634674923,150.0
1391,62.05495356037152,150.0
1392,62.795085139318886,150.0
1393,57.962461300309606,150.0
1394,60.10545665634675,150.0
1395,62.01625386996904,150.0
1396,58.74613003095975,150.0
1397,61.01973684210526,150.0
1398,59.71362229102167,150.0
1399,60.10061919504645,150.0
1400,63.530379256965944,150.0
1401,59.03637770897833,150.0
1402,58.571981424148596,150.0
1403,61.16486068111455,150.0
1404,56.8014705882353,150.0
1405,59.23955108359133,150.0
1406,64.40112229102168,150.0
1407,57.23200464396285,150.0
1408,56.84017027863778,150.0
1409,61.10681114551083,150.0
1410,57.754450464396285,150.0
1411,56.293537151702786,150.0
1412,59.3217879256966,150.0
1413,59.69910990712074,150.0
1414,60.26025541795666,150.0
1415,59.171826625387,150.0
1416,58.99284055727554,150.0
1417,60.60371517027864,150.0
1418,62.75154798761611,150.0
1419,55.16157120743033,150.0
1420,56.370936532507734,150.0
1421,56.22097523219815,150.0
1422,63.486842105263165,150.0
1423,58.63003095975232,150.0
1424,56.60313467492259,150.0
1425,58.28173374613003,150.0
1426,58.252708978328165,150.0
1427,57.6625386996904,150.0
1428,58.19949690402477,150.0
1429,56.849845201238395,150.0
1430,64.03347523219814,150.0
1431,58.3155959752322,150.0
1432,56.87403250773994,150.0
1433,60.240905572755416,150.0
1434,63.0514705882353,150.0
1435,60.13448142414861,150.0
1436,54.914860681114554,150.0
1437,60.95684984520125,150.0
1438,58.726780185758514,150.0
1439,63.01760835913313,150.0
1440,61.817917956656345,150.0
1441,56.68537151702787,150.0
1442,61.658281733746115,150.0
1443,58.83804179566564,150.0
1444,56.777283281733745,150.0
1445,60.99071207430341,150.0
1446,56.19195046439628,150.0
1447,58.38815789473685,150.0
1448,61.198722910216716,150.0
1449,58.03018575851393,150.0
1450,58.944465944272444,150.0
1451,57.797987616099064,150.0
1452,58.04953560371517,150.0
1453,61.83243034055728,150.0
1454,62.204914860681114,150.0
1455,59.820046439628484,150.0
1456,57.17395510835913,150.0
1457,58.38332043343652,150.0
1458,56.53541021671827,150.0
1459,63.467492260061924,150.0
1460,57.967298761609904,150.0
1461,57.28037925696595,150.0
1462,60.86010061919504,150.0
1463,62.04044117647059,150.0
1464,61.12616099071207,150.0
1465,56.57410990712074,150.0
1466,59.42337461300309,150.0
1467,60.71013931888544,150.0
1468,59.22020123839009,150.0
1469,57.275541795665625,150.0
1470,58.15595975232197,150.0
1471,57.99148606811145,150.0
1472,61.73568111455108,150.0
1473,56.709558823529406,150.0
1474,59.413699690402474,150.0
1475,60.08610681114551,150.0
1476,57.56095201238391,150.0
1477,58.83320433436533,150.0
1478,65.37345201238391,150.0
1479,56.56927244582043,150.0
1480,60.018382352941174,150.0
1481,58.73645510835914,150.0
1482,59.40886222910216,150.0
1483,55.71304179566564,150.0
1484,57.2610294117647,150.0
1485,59.31211300309597,150.0
1486,58.48974458204334,150.0
1487,60.09578173374613,150.0
1488,61.66795665634674,150.0
1489,55.36474458204334,150.0
1490,60.705301857585134,150.0
1491,58.238196594427244,150.0
1492,52.9750386996904,150.0
1493,57.95762383900929,150.0
1494,60.255417956656345,150.0
1495,61.42124613003096,150.0
1496,58.48490712074303,150.0
1497,59.73780959752323,150.0
1498,54.96807275541796,150.0
1499,61.60990712074304,150.0
1500,59.287925696594435,150.0
1501,59.25890092879257,150.0
1502,57.585139318885446,150.0
1503,60.48277863777089,150.0
1504,55.80979102167183,150.0
1505,60.782701238390096,150.0
1506,60.56985294117647,150.0
1507,59.162151702786375,150.0
1508,59.91679566563468,150.0
1509,62.43227554179566,150.0
1510,63.09984520123838,150.0
1511,58.31075851393189,150.0
1512,59.15247678018576,150.0
1513,60.313467492260045,150.0
1514,63.65131578947369,150.0
1515,56.70955882352942,150.0
1516,59.65557275541796,150.0
1517,61.856617647058826,150.0
1518,59.85390866873064,150.0
1519,60.68595201238389,150.0
1520,59.936145510835914,150.0
1521,56.93208204334365,150.0
1522,55.359907120743024,150.0
1523,58.81869195046439,150.0
1524,58.65421826625387,150.0
1525,62.02109133126935,150.0
1526,59.21536377708979,150.0
1527,60.086106811145505,150.0
1528,56.71439628482973,150.0
1529,60.279605263157904,150.0
1530,58.3155959752322,150.0
1531,59.23955108359133,150.0
1532,58.08823529411765,150.0
1533,58.784829721362236,150.0
1534,57.45452786377708,150.0
1535,55.809791021671835,150.0
1536,61.213235294117645,150.0
1537,61.12132352941177,150.0
1538,56.39028637770898,150.0
1539,57.40131578947368,150.0
1540,60.19736842105264,150.0
1541,53.986068111455104,150.0
1542,57.92859907120743,150.0
1543,57.70123839009288,150.0
1544,57.12558049535603,150.0
1545,55.25832043343653,150.0
1546,59.684597523219814,150.0
1547,56.49187306501548,150.0
1548,57.217492260061924,150.0
1549,60.31346749226006,150.0
1550,59.87325851393188,150.0
1551,56.36126160990711,150.0
1552,57.440015479876166,150.0
1553,60.216718266253864,150.0
1554,60.758513931888544,150.0
1555,59.4282120743034,150.0
1556,55.01644736842105,150.0
1557,58.54295665634675,150.0
1558,56.453173374613,150.0
1559,61.566369969040245,150.0
1560,59.7765092879257,150.0
1561,57.396478328173366,150.0
1562,56.95143188854489,150.0
1563,59.200851393188856,150.0
1564,63.39976780185757,150.0
1565,59.70394736842105,150.0
1566,59.379837461300305,150.0
1567,65.49438854489165,150.0
1568,63.61261609907121,150.0
1569,60.98587461300309,150.0
1570,60.26025541795666,150.0
1571,56.35642414860682,150.0
1572,56.38544891640867,150.0
1573,55.49535603715169,150.0
1574,57.32391640866872,150.0
1575,61.600232198142415,150.0
1576,54.760061919504636,150.0
1577,59.86842105263158,150.0
1578,56.598297213622295,150.0
1579,58.98316563467492,150.0
1580,63.394930340557266,150.0
1581,60.89396284829721,150.0
1582,60.903637770897845,150.0
1583,61.05359907120744,150.0
1584,56.86435758513932,150.0
1585,57.48839009287926,150.0
1586,58.17047213622292,150.0
1587,57.61416408668731,150.0
1588,60.65692724458205,150.0
1589,60.632739938080505,150.0
1590,59.47174922600619,150.0
1591,59.181501547987615,150.0
1592,62.3016640866873,150.0
1593,55.9017027863777,150.0
1594,54.9390479876161,150.0
1595,56.8063080495356,150.0
1596,61.145510835913306,150.0
1597,59.96517027863778,150.0
1598,61.07294891640866,150.0
1599,56.158088235294116,150.0
1600,58.00116099071207,150.0
1601,53.28947368421052,150.0
1602,59.55882352941176,150.0
1603,61.52767027863777,150.0
1604,58.28173374613003,150.0
1605,61.67279411764707,150.0
1606,59.78134674922602,150.0
1607,62.33552631578947,150.0
1608,56.27418730650156,150.0
1609,59.68943498452012,150.0
1610,59.63622291021672,150.0
1611,59.52012383900928,150.0
1612,63.41428018575851,150.0
1613,60.92298761609907,150.0
1614,61.37770897832816,150.0
1615,56.158088235294116,150.0
1616,55.669504643962846,150.0
1617,52.00270897832818,150.0
1618,59.61687306501549,150.0
1619,60.63273993808049,150.0
1620,58.93962848297215,150.0
1621,59.72329721362229,150.0
1622,57.846362229102176,150.0
1623,58.794504643962846,150.0
1624,60.207043343653254,150.0
1625,55.737229102167184,150.0
1626,58.49941950464396,150.0
1627,62.43227554179566,150.0
1628,56.651509287925705,150.0
1629,59.771671826625386,150.0
1630,56.27418730650156,150.0
1631,63.06114551083592,150.0
1632,58.19465944272446,150.0
1633,62.156540247678016,150.0
1634,60.88912538699691,150.0
1635,64.87035603715171,150.0
1636,58.654218266253864,150.0
1637,57.63351393188854,150.0
1638,59.766834365325074,150.0
1639,59.176664086687296,150.0
1640,58.252708978328165,150.0
1641,56.06133900928791,150.0
1642,59.20568885448917,150.0
1643,57.885061919504636,150.0
1644,59.099264705882355,150.0
1645,64.22697368421052,150.0
1646,56.16776315789473,150.0
1647,63.109520123839005,150.0
1648,58.53328173374613,150.0
1649,61.39705882352941,150.0
1650,57.89957430340557,150.0
1651,55.73722910216719,150.0
1652,63.090170278637785,150.0
1653,57.7592879256966,150.0
1654,56.83533281733747,150.0
1655,60.56017801857585,150.0
1656,61.222910216718276,150.0
1657,58.194659442724465,150.0
1658,60.086106811145505,150.0
1659,62.00657894736842,150.0
1660,60.81172600619195,150.0
1661,58.184984520123834,150.0
1662,60.74883900928793,150.0
1663,56.288699690402474,150.0
1664,61.871130030959755,150.0
1665,58.18982198142415,150.0
1666,55.91621517027864,150.0
1667,61.755030959752304,150.0
1668,57.435178018575854,150.0
1669,61.06811145510837,150.0
1670,61.20839783281734,150.0
1671,59.452399380804955,150.0
1672,60.45859133126935,150.0
1673,58.85739164086687,150.0
1674,61.140673374613,150.0
1675,62.422600619195066,150.0
1676,58.5187693498452,150.0
1677,60.1296439628483,150.0
1678,52.92666408668731,150.0
1679,60.65692724458205,150.0
1680,55.050309597523224,150.0
1681,60.70046439628483,150.0
1682,55.43730650154799,150.0
1683,64.94291795665632,150.0
1684,58.95897832817337,150.0
1685,54.46497678018576,150.0
1686,58.262383900928796,150.0
1687,55.25832043343652,150.0
1688,61.34384674922602,150.0
1689,61.61958204334366,150.0
1690,62.10816563467491,150.0
1691,59.56849845201237,150.0
1692,63.71420278637771,150.0
1693,61.73568111455108,150.0
1694,58.52360681114551,150.0
1695,61.80340557275543,150.0
1696,60.734326625387,150.0
1697,55.887190402476776,150.0
1698,62.678986068111456,150.0
1699,61.2470975232198,150.0
1700,59.500773993808046,150.0
1701,62.51451238390093,150.0
1702,57.9624613003096,150.0
1703,62.28231424148606,150.0
1704,58.7219427244582,150.0
1705,61.09713622291022,150.0
1706,59.38467492260062,150.0
1707,62.108165634674926,150.0
1708,67.28908668730651,150.0
1709,60.16834365325077,150.0
1710,61.76954334365325,150.0
1711,60.52631578947368,150.0
1712,57.986648606811144,150.0
1713,57.972136222910216,150.0
1714,59.56849845201239,150.0
1715,59.2734133126935,150.0
1716,61.32449690402477,150.0
1717,59.51528637770899,150.0
1718,59.24922600619194,150.0
1719,58.528444272445824,150.0
1720,59.83939628482972,150.0
1721,55.86784055727554,150.0
1722,57.60448916408669,150.0
1723,64.35758513931887,150.0
1724,58.33978328173375,150.0
1725,59.815208978328165,150.0
1726,62.156540247678016,150.0
1727,62.63061145510836,150.0
1728,55.82914086687307,150.0
1729,58.625193498452006,150.0
1730,57.81733746130032,150.0
1731,61.300309597523224,150.0
1732,60.23606811145511,150.0
1733,58.992840557275535,150.0
1734,61.14067337461299,150.0
1735,59.331462848297214,150.0
1736,63.58842879256966,150.0
1737,60.54082817337461,150.0
1738,63.45297987616101,150.0
1739,61.08262383900929,150.0
1740,59.41853715170279,150.0
1741,59.10410216718267,150.0
1742,58.49941950464397,150.0
1743,57.565789473684205,150.0
1744,57.49322755417957,150.0
1745,58.01083591331269,150.0
1746,57.98181114551084,150.0
1747,58.20433436532508,150.0
1748,58.58649380804953,150.0
1749,56.31288699690402,150.0
1750,59.065402476780186,150.0
1751,61.72600619195047,150.0
1752,56.77244582043344,150.0
1753,57.48839009287925,150.0
1754,57.638351393188856,150.0
1755,55.669504643962846,150.0
1756,63.63680340557277,150.0
1757,58.96381578947369,150.0
1758,59.65557275541795,150.0
1759,59.81520897832817,150.0
1760,60.076431888544896,150.0
1761,57.17395510835914,150.0
1762,55.935565015479874,150.0
1763,57.193304953560364,150.0
1764,56.961106811145505,150.0
1765,59.30243808049536,150.0
1766,56.356424148606806,150.0
1767,58.320433436532504,150.0
1768,61.21807275541795,150.0
1769,66.16195820433438,150.0
1770,58.14144736842105,150.0
1771,62.03560371517027,150.0
1772,54.66331269349845,150.0
1773,60.50696594427244,150.0
1774,59.62171052631579,150.0
1775,60.352167182662534,150.0
1776,57.75928792569659,150.0
1777,63.215944272445824,150.0
1778,61.440595975232206,150.0
1779,54.344040247678016,150.0
1780,61.914667182662534,150.0
1781,58.779992260061924,150.0
1782,60.4295665634675,150.0
1783,61.276122291021665,150.0
1784,57.9140866873065,150.0
1785,58.42685758513932,150.0
1786,57.7641253869969,150.0
1787,60.0328947368421,150.0
1788,59.73297213622291,150.0
1789,57.81733746130031,150.0
1790,57.15460526315788,150.0
1791,56.225812693498455,150.0
1792,55.98393962848298,150.0
1793,57.93827399380805,150.0
1794,60.2312306501548,150.0
1795,63.29334365325077,150.0
1796,55.62596749226005,150.0
1797,55.94040247678018,150.0
1798,59.012190402476776,150.0
1799,60.46342879256966,150.0
1800,59.93614551083591,150.0
1801,58.533281733746136,150.0
1802,57.83184984520123,150.0
1803,54.65363777089783,150.0
1804,55.872678018575854,150.0
1805,56.16776315789473,150.0
1806,59.32178792569659,150.0
1807,58.87674148606811,150.0
1808,57.07236842105264,150.0
1809,56.77244582043345,150.0
1810,60.16834365325078,150.0
1811,63.051470588235304,150.0
1812,56.77728328173374,150.0
1813,58.5187693498452,150.0
1814,58.3639705882353,150.0
1815,58.88641640866873,150.0
1816,56.86919504643963,150.0
1817,62.229102167182646,150.0
1818,59.58301083591331,150.0
1819,58.842879256965944,150.0
1820,57.39164086687306,150.0
1821,60.434404024767794,150.0
1822,57.40131578947368,150.0
1823,58.22368421052631,150.0
1824,63.96091331269349,150.0
1825,60.74883900928791,150.0
1826,59.01219040247678,150.0
1827,58.441369969040245,150.0
1828,64.06733746130031,150.0
1829,61.140673374613016,150.0
1830,61.958204334365334,150.0
1831,60.13448142414861,150.0
1832,60.41989164086687,150.0
1833,59.50561145510835,150.0
1834,60.99554953560373,150.0
1835,59.00251547987616,150.0
1836,57.352941176470594,150.0
1837,61.01006191950464,150.0
1838,56.999806501547994,150.0
1839,59.56366099071208,150.0
1840,58.397832817337466,150.0
1841,59.49109907120743,150.0
1842,62.78057275541795,150.0
1843,61.8953173374613,150.0
1844,57.09171826625387,150.0
1845,59.99419504643963,150.0
1846,58.80901702786378,150.0
1847,60.87461300309598,150.0
1848,61.69698142414862,150.0
1849,60.976199690402474,150.0
1850,56.172600619195045,150.0
1851,56.09520123839009,150.0
1852,60.0280572755418,150.0
1853,59.61203560371517,150.0
1854,59.42821207430342,150.0
1855,61.92434210526315,150.0
1856,61.05843653250775,150.0
1857,60.618227554179555,150.0
1858,58.992840557275535,150.0
1859,59.49109907120743,150.0
1860,61.198722910216716,150.0
1861,58.27689628482972,150.0
1862,61.41157120743033,150.0
1863,60.44407894736842,150.0
1864,60.908475232198136,150.0
1865,60.250580495356026,150.0
1866,60.41505417956655,150.0
1867,59.90712074303405,150.0
1868,57.502902476780186,150.0
1869,60.14899380804953,150.0
1870,57.25135448916408,150.0
1871,59.0702399380805,150.0
1872,62.0984907120743,150.0
1873,59.15247678018576,150.0
1874,60.226393188854495,150.0
1875,60.20704334365324,150.0
1876,55.78076625386996,150.0
1877,57.59481424148606,150.0
1878,61.493808049535616,150.0
1879,59.616873065015476,150.0
1880,62.23393962848298,150.0
1881,62.15170278637771,150.0
1882,60.03289473684211,150.0
1883,61.33417182662539,150.0
1884,60.82140092879257,150.0
1885,59.71362229102167,150.0
1886,60.0280572755418,150.0
1887,57.71575077399381,150.0
1888,52.82991486068112,150.0
1889,58.33494582043343,150.0
1890,60.323142414860676,150.0
1891,62.6983359133127,150.0
1892,58.813854489164086,150.0
1893,60.26993034055728,150.0
1894,61.31965944272446,150.0
1895,60.60371517027864,150.0
1896,62.42260061919504,150.0
1897,61.943691950464384,150.0
1898,55.78076625386996,150.0
1899,59.95549535603715,150.0
1900,57.83184984520123,150.0
1901,59.73780959752322,150.0
1902,58.39783281733746,150.0
1903,53.120162538699695,150.0
1904,60.816563467492266,150.0
1905,59.25406346749226,150.0
1906,58.73161764705882,150.0
1907,61.387383900928796,150.0
1908,57.909249226006196,150.0
1909,60.652089783281724,150.0
1910,59.200851393188856,150.0
1911,59.1234520123839,150.0
1912,56.593459752321984,150.0
1913,55.63080495356037,150.0
1914,55.80495356037152,150.0
1915,61.96787925696593,150.0
1916,57.02399380804953,150.0
1917,58.286571207430335,150.0
1918,60.47310371517028,150.0
1919,54.43595201238389,150.0
1920,59.03637770897833,150.0
1921,54.82778637770898,150.0
1922,54.27147832817337,150.0
1923,59.984520123839005,150.0
1924,61.22291021671826,150.0
1925,58.77999226006192,150.0
1926,61.43575851393189,150.0
1927,60.62306501547988,150.0
1928,57.07236842105263,150.0
1929,60.052244582043336,150.0
1930,56.68053405572756,150.0
1931,62.016253869969034,150.0
1932,61.450270897832816,150.0
1933,56.77728328173376,150.0
1934,55.52438080495356,150.0
1935,58.60584365325079,150.0
1936,57.8657120743034,150.0
1937,56.91756965944272,150.0
1938,58.88641640866872,150.0
1939,58.65421826625387,150.0
1940,58.19949690402476,150.0
1941,54.27147832817338,150.0
1942,59.97484520123839,150.0
1943,60.603715170278626,150.0
1944,58.57198142414861,150.0
1945,60.71497678018576,150.0
1946,60.49245356037152,150.0
1947,55.70336687306502,150.0
1948,57.062693498452006,150.0
1949,62.8531346749226,150.0
1950,58.49941950464397,150.0
1951,58.75580495356037,150.0
1952,62.853134674922615,150.0
1953,59.907120743034056,150.0
1954,57.05301857585138,150.0
1955,61.70665634674924,150.0
1956,56.47736068111455,150.0
1957,59.152476780185765,150.0
1958,57.95762383900928,150.0
1959,59.09442724458204,150.0
1960,59.331462848297214,150.0
1961,60.05708204334365,150.0
1962,60.04256965944273,150.0
1963,59.23955108359134,150.0
1964,56.43382352941176,150.0
1965,55.485681114551085,150.0
1966,59.921633126934985,150.0
1967,58.05437306501547,150.0
1968,58.86706656346749,150.0
1969,59.45239938080494,150.0
1970,57.527089783281724,150.0
1971,57.86571207430341,150.0
1972,57.32391640866873,150.0
1973,56.72890866873065,150.0
1974,57.68188854489164,150.0
1975,59.69427244582044,150.0
1976,63.54005417956655,150.0
1977,59.181501547987615,150.0
1978,63.7529024767802,150.0
1979,62.461300309597526,150.0
1980,59.75715944272446,150.0
1981,62.16621517027864,150.0
1982,61.503482972136226,150.0
1983,56.91756965944272,150.0
1984,56.245162538699695,150.0
1985,57.14493034055727,150.0
1986,58.95897832817337,150.0
1987,60.0861068111455,150.0
1988,65.04934210526315,150.0
1989,61.61474458204333,150.0
1990,59.505611455108344,150.0
1991,63.2546439628483,150.0
1992,61.30514705882354,150.0
1993,61.585719814241486,150.0
1994,59.974845201238395,150.0
1995,60.43924148606811,150.0
1996,59.810371517027875,150.0
1997,59.670085139318886,150.0
1998,59.38951238390092,150.0
1999,57.0094814241486,150.0
2000,61.503482972136226,150.0
2001,64.4107972136223,150.0
2002,60.308630030959755,150.0
2003,54.97774767801857,150.0
2004,55.42279411764706,150.0
2005,61.70181888544892,150.0
2006,64.30921052631578,150.0
2007,60.82623839009288,150.0
2008,60.666602167182674,150.0
2009,57.991486068111456,150.0
2010,60.18769349845201,150.0
2011,59.99903250773993,150.0
2012,56.36126160990712,150.0
2013,59.79102167182663,150.0
2014,57.10139318885449,150.0
2015,59.83455882352942,150.0
2016,57.39647832817337,150.0
2017,58.422020123839005,150.0
2018,62.87248452012385,150.0
2019,60.49729102167183,150.0
2020,55.75657894736841,150.0
2021,58.17530959752322,150.0
2022,59.70878482972137,150.0
2023,61.963041795665625,150.0
2024,60.31346749226006,150.0
2025,57.028831269349844,150.0
2026,58.07372291021673,150.0
2027,58.99284055727554,150.0
2028,60.04256965944272,150.0
2029,60.671439628482965,150.0
2030,58.489744582043336,150.0
2031,58.88641640866874,150.0
2032,62.87732198142414,150.0
2033,58.035023219814235,150.0
2034,64.1205495356037,150.0
2035,58.310758513931894,150.0
2036,59.27825077399381,150.0
2037,56.95143188854489,150.0
2038,58.900928792569665,150.0
2039,62.11300309597523,150.0
2040,60.942337461300305,150.0
2041,60.71981424148606,150.0
2042,57.309404024767815,150.0
2043,61.837267801857585,150.0
2044,60.87461300309598,150.0
2045,60.58920278637771,150.0
2046,57.84636222910216,150.0
2047,60.39570433436532,150.0
2048,57.493227554179576,150.0
2049,58.3204334365325,150.0
2050,56.89338235294116,150.0
2051,57.78347523219814,150.0
2052,60.323142414860676,150.0
2053,58.644543343653254,150.0
2054,60.734326625386984,150.0
2055,60.695626934984524,150.0
2056,61.3390092879257,150.0
2057,59.38467492260062,150.0
2058,59.93130804953561,150.0
2059,59.31695046439628,150.0
2060,55.950077399380795,150.0
2061,60.55050309597523,150.0
2062,59.74264705882352,150.0
2063,61.31965944272446,150.0
2064,61.77921826625387,150.0
2065,54.489164086687296,150.0
2066,60.037732198142415,150.0
2067,56.187113003095966,150.0
2068,60.23123065015479,150.0
2069,60.734326625386984,150.0
2070,55.374419504643974,150.0
2071,60.36184210526315,150.0
2072,62.94988390092879,150.0
2073,58.368808049535616,150.0
2074,59.09926470588236,150.0
2075,59.61687306501547,150.0
2076,57.47871517027863,150.0
2077,59.14280185758514,150.0
2078,57.88506191950464,150.0
2079,60.168343653250766,150.0
2080,59.670085139318886,150.0
2081,61.30998452012385,150.0
2082,61.92917956656347,150.0
2083,60.1828560371517,150.0
2084,61.851780185758514,150.0
2085,56.34674922600619,150.0
2086,58.52360681114551,150.0
2087,63.34655572755417,150.0
2088,61.82275541795664,150.0
2089,60.269930340557266,150.0
2090,55.974264705882355,150.0
2091,58.45588235294118,150.0
2092,62.48065015479876,150.0
2093,58.039860681114554,150.0
2094,58.736455108359145,150.0
2095,66.71826625386996,150.0
2096,62.42743808049534,150.0
2097,60.057082043343655,150.0
2098,56.046826625387,150.0
2099,55.85816563467492,150.0
2100,61.958204334365334,150.0
2101,61.07778637770898,150.0
2102,59.936145510835914,150.0
2103,55.50986842105263,150.0
2104,57.10139318885449,150.0
2105,54.40208978328173,150.0
2106,54.77941176470588,150.0
2107,59.03154024767802,150.0
2108,56.245162538699695,150.0
2109,63.690015479876166,150.0
2110,61.06811145510836,150.0
2111,56.93208204334365,150.0
2112,57.59965170278638,150.0
2113,58.21884674922601,150.0
2114,59.902283281733745,150.0
2115,61.14551083591332,150.0
2116,56.83049535603715,150.0
2117,62.27747678018576,150.0
2118,58.93962848297214,150.0
2119,57.60448916408669,150.0
2120,61.10197368421053,150.0
2121,59.92163312693498,150.0
2122,60.88428792569659,150.0
2123,64.24148606811146,150.0
2124,58.36880804953561,150.0
2125,59.55882352941177,150.0
2126,59.08475232198142,150.0
2127,57.30456656346749,150.0
2128,59.36048761609908,150.0
2129,58.441369969040245,150.0
2130,61.97271671826626,150.0
2131,58.92027863777089,150.0
2132,61.63893188854489,150.0
2133,61.624419504643974,150.0
2134,57.68672600619195,150.0
2135,59.824883900928796,150.0
2136,61.605069659442734,150.0
2137,61.556695046439636,150.0
2138,53.279798761609904,150.0
2139,58.712267801857585,150.0
2140,56.11938854489164,150.0
2141,59.65557275541795,150.0
2142,60.45859133126935,150.0
2143,62.37422600619193,150.0
2144,59.61203560371517,150.0
2145,58.40750773993808,150.0
2146,56.95143188854489,150.0
2147,58.18014705882353,150.0
2148,57.706075851393194,150.0
2149,56.03715170278638,150.0
2150,59.05089009287926,150.0
2151,61.67763157894738,150.0
2152,59.350812693498455,150.0
2153,56.72890866873065,150.0
2154,61.01489938080495,150.0
2155,60.28444272445821,150.0
2156,56.661184210526315,150.0
2157,59.53947368421052,150.0
2158,62.72736068111455,150.0
2159,63.0079334365325,150.0
2160,61.40673374613002,150.0
2161,60.908475232198136,150.0
2162,54.48432662538699,150.0
2163,59.35081269349844,150.0
2164,58.94446594427245,150.0
2165,59.4282120743034,150.0
2166,59.481424148606806,150.0
2167,59.568498452012385,150.0
2168,61.963041795665625,150.0
2169,64.85584365325077,150.0
2170,61.42608359133128,150.0
2171,61.64376934984519,150.0
2172,62.51934984520124,150.0
2173,58.170472136222905,150.0
2174,57.8608746130031,150.0
2175,63.62229102167184,150.0
2176,61.832430340557295,150.0
2177,59.0702399380805,150.0
2178,62.62577399380804,150.0
2179,62.81443498452012,150.0
2180,59.607198142414866,150.0
2181,59.718459752321984,150.0
2182,55.81462848297213,150.0
2183,56.18711300309597,150.0
2184,63.60294117647057,150.0
2185,60.932662538699695,150.0
2186,57.212654798761605,150.0
2187,62.253289473684205,150.0
2188,60.956849845201226,150.0
2189,65.10739164086688,150.0
2190,60.79237616099071,150.0
2191,58.57681888544892,150.0
2192,64.54140866873067,150.0
2193,61.50832043343653,150.0
2194,61.53734520123838,150.0
2195,56.81598297213622,150.0
2196,62.99825851393189,150.0
2197,58.397832817337466,150.0
2198,58.50909442724459,150.0
2199,57.648026315789465,150.0
2200,59.133126934984524,150.0
2201,57.44001547987616,150.0
2202,57.154605263157904,150.0
2203,54.56172600619195,150.0
2204,59.50077399380805,150.0
2205,58.13177244582044,150.0
2206,56.27902476780185,150.0
2207,57.15460526315789,150.0
2208,57.2561919504644,150.0
2209,60.361842105263165,150.0
2210,54.087654798761605,150.0
2211,56.81598297213622,150.0
2212,62.03560371517028,150.0
2213,58.562306501547994,150.0
2214,56.70472136222911,150.0
2215,62.41292569659442,150.0
2216,59.35565015479875,150.0
2217,59.79102167182663,150.0
2218,62.39841331269349,150.0
2219,60.1780185758514,150.0
2220,60.65208978328174,150.0
2221,65.29605263157893,150.0
2222,62.683823529411754,150.0
2223,58.354295665634666,150.0
2224,62.25812693498451,150.0
2225,57.25135448916407,150.0
2226,63.17724458204334,150.0
2227,55.86300309597522,150.0
2228,60.36667956656347,150.0
2229,64.89938080495357,150.0
2230,60.54082817337461,150.0
2231,60.05224458204335,150.0
2232,57.130417956656345,150.0
2233,61.967879256965944,150.0
2234,58.1172600619195,150.0
2235,57.07720588235295,150.0
2236,64.00445046439627,150.0
2237,60.129643962848306,150.0
2238,57.193304953560364,150.0
2239,61.871130030959755,150.0
2240,59.152476780185765,150.0
2241,62.02592879256967,150.0
2242,57.3045665634675,150.0
2243,67.14880030959753,150.0
2244,61.01973684210527,150.0
2245,63.89802631578947,150.0
2246,58.412345201238395,150.0
2247,65.33475232198143,150.0
2248,57.52225232198142,150.0
2249,61.029411764705884,150.0
2250,57.851199690402474,150.0
2251,56.9562693498452,150.0
2252,62.137190402476776,150.0
2253,59.95065789473684,150.0
2254,60.75367647058823,150.0
2255,65.27670278637771,150.0
2256,58.712267801857585,150.0
2257,62.91118421052631,150.0
2258,64.14473684210526,150.0
2259,59.30243808049536,150.0
2260,57.856037151702786,150.0
2261,60.652089783281724,150.0
2262,59.89260835913313,150.0
2263,55.717879256965944,150.0
2264,58.823529411764696,150.0
2265,58.80901702786378,150.0
2266,59.73297213622291,150.0
2267,60.59887770897832,150.0
2268,57.51257739938081,150.0
2269,56.617647058823536,150.0
2270,55.737229102167184,150.0
2271,58.33010835913313,150.0
2272,61.11164860681115,150.0
2273,55.44698142414861,150.0
2274,59.08958978328173,150.0
2275,58.25270897832817,150.0
2276,61.67279411764706,150.0
2277,65.0203173374613,150.0
2278,59.97968266253869,150.0
2279,58.13177244582044,150.0
2280,58.731617647058826,150.0
2281,58.00116099071207,150.0
2282,58.60100619195046,150.0
2283,57.091718266253864,150.0
2284,59.336300309597526,150.0
2285,59.19601393188855,150.0
2286,61.19388544891641,150.0
2287,57.96246130030959,150.0
2288,59.418537151702786,150.0
2289,58.625193498452006,150.0
2290,62.44678792569659,150.0
2291,60.69078947368422,150.0
2292,58.61068111455107,150.0
2293,56.99496904024767,150.0
2294,58.93962848297213,150.0
2295,59.94098297213622,150.0
2296,57.17879256965944,150.0
2297,55.87751547987616,150.0
2298,59.539473684210535,150.0
2299,58.32527089783281,150.0
2300,55.16640866873065,150.0
2301,60.01354489164087,150.0
2302,59.7281346749226,150.0
2303,54.75038699690402,150.0
2304,61.18904798761611,150.0
2305,59.56849845201238,150.0
2306,60.995549535603715,150.0
2307,58.47039473684211,150.0
2308,56.79179566563467,150.0
2309,61.34868421052631,150.0
2310,60.75367647058823,150.0
2311,58.50425696594427,150.0
2312,62.156540247678016,150.0
2313,59.09442724458204,150.0
2314,59.63622291021672,150.0
2315,63.14821981424149,150.0
2316,56.0516640866873,150.0
2317,57.38680340557276,150.0
2318,56.119388544891635,150.0
2319,54.27147832817337,150.0
2320,61.764705882352956,150.0
2321,60.49245356037152,150.0
2322,63.153057275541805,150.0
2323,61.05359907120743,150.0
2324,56.56443498452012,150.0
2325,60.17318111455108,150.0
2326,60.08126934984519,150.0
2327,60.44891640866872,150.0
2328,59.54431114551083,150.0
2329,57.03850619195046,150.0
2330,62.96923374613004,150.0
2331,61.81308049535604,150.0
2332,60.357004643962846,150.0
2333,61.503482972136226,150.0
2334,62.03076625386998,150.0
2335,58.14628482972137,150.0
2336,58.63486842105264,150.0
2337,59.7765092879257,150.0
2338,59.732972136222905,150.0
2339,63.98993808049536,150.0
2340,55.872678018575854,150.0
2341,63.080495356037154,150.0
2342,61.68246904024767,150.0
2343,54.856811145510825,150.0
2344,58.09791021671827,150.0
2345,56.50638544891641,150.0
2346,59.907120743034056,150.0
2347,58.38815789473685,150.0
2348,57.246517027863774,150.0
2349,64.38177244582043,150.0
2350,61.97755417956657,150.0
2351,59.950657894736835,150.0
2352,63.28366873065016,150.0
2353,58.48006965944273,150.0
2354,58.465557275541805,150.0
2355,60.594040247678016,150.0
2356,58.86706656346749,150.0
2357,60.36667956656347,150.0
2358,58.446207430340564,150.0
2359,62.05495356037151,150.0
2360,62.42743808049536,150.0
2361,61.479295665634666,150.0
2362,58.74129256965944,150.0
2363,59.98935758513932,150.0
2364,54.29566563467492,150.0
2365,65.05901702786377,150.0
2366,60.76335139318886,150.0
2367,59.689434984520126,150.0
2368,58.77999226006192,150.0
2369,58.605843653250766,150.0
2370,61.20839783281734,150.0
2371,59.0750773993808,150.0
2372,60.690789473684205,150.0
2373,59.30727554179566,150.0
2374,61.81791795665634,150.0
2375,63.041795665634666,150.0
2376,64.55108359133129,150.0
2377,58.344620743034056,150.0
2378,57.65770123839009,150.0
2379,61.624419504643974,150.0
2380,56.62248452012384,150.0
2381,58.630030959752325,150.0
2382,60.173181114551085,150.0
2383,58.16563467492261,150.0
2384,62.63061145510836,150.0
2385,60.67143962848298,150.0
2386,61.08262383900929,150.0
2387,59.278250773993804,150.0
2388,57.870549535603715,150.0
2389,59.099264705882355,150.0
2390,56.97078173374613,150.0
2391,57.46420278637771,150.0
2392,61.290634674922615,150.0
2393,60.265092879256976,150.0
2394,59.92647058823529,150.0
2395,60.15383126934984,150.0
2396,58.75096749226005,150.0
2397,56.71439628482972,150.0
2398,58.4703947368421,150.0
2399,62.57256191950463,150.0
2400,59.68943498452013,150.0
2401,61.542182662538714,150.0
2402,58.11726006191951,150.0
2403,62.61126160990712,150.0
2404,58.910603715170275,150.0
2405,58.373645510835914,150.0
2406,58.218846749226,150.0
2407,58.92027863777089,150.0
2408,58.871904024767794,150.0
2409,62.02109133126935,150.0
2410,59.326625386996895,150.0
2411,59.68943498452012,150.0
2412,56.085526315789465,150.0
2413,53.807082043343655,150.0
2414,59.78618421052631,150.0
2415,59.95549535603715,150.0
2416,59.505611455108365,150.0
2417,61.65828173374613,150.0
2418,55.717879256965944,150.0
2419,58.98800309597523,150.0
2420,58.60584365325078,150.0
2421,60.652089783281724,150.0
2422,59.46207430340558,150.0
2423,54.20859133126935,150.0
2424,58.6203560371517,150.0
2425,57.986648606811144,150.0
2426,60.45859133126935,150.0
2427,53.86513157894736,150.0
2428,58.015673374612994,150.0
2429,57.64802631578947,150.0
2430,59.23471362229102,150.0
2431,58.789667182662534,150.0
2432,58.896091331269346,150.0
2433,62.06462848297212,150.0
2434,59.046052631578945,150.0
2435,65.05901702786379,150.0
2436,60.5843653250774,150.0
2437,57.522252321981426,150.0
2438,59.10410216718266,150.0
2439,57.71575077399381,150.0
2440,60.77302631578947,150.0
2441,57.69640092879257,150.0
2442,61.44059597523219,150.0
2443,60.1296439628483,150.0
2444,58.0640479876161,150.0
2445,62.2436145510836,150.0
2446,57.06753095975233,150.0
2447,63.95607585139319,150.0
2448,57.952786377708975,150.0
2449,60.7875386996904,150.0
2450,59.05089009287925,150.0
2451,59.113777089783284,150.0
2452,61.866292569659436,150.0
2453,57.778637770897824,150.0
2454,53.086300309597526,150.0
2455,58.2672213622291,150.0
2456,62.91602167182662,150.0
2457,53.608746130030966,150.0
2458,60.57469040247679,150.0
2459,60.995549535603715,150.0
2460,58.66873065015479,150.0
2461,56.443498452012385,150.0
2462,56.12906346749225,150.0
2463,56.806308049535616,150.0
2464,56.34191176470588,150.0
2465,58.218846749226,150.0
2466,55.746904024767794,150.0
2467,63.16273219814243,150.0
2468,60.284442724458195,150.0
2469,62.62577399380805,150.0
2470,59.215363777089784,150.0
2471,57.79798761609907,150.0
2472,63.9560758513932,150.0
2473,60.153831269349844,150.0
2474,56.69504643962848,150.0
2475,61.948529411764696,150.0
2476,60.47794117647059,150.0
2477,58.243034055727556,150.0
2478,58.98800309597522,150.0
2479,58.407507739938076,150.0
2480,57.967298761609904,150.0
2481,59.4862616099071,150.0
2482,62.57739938080495,150.0
2483,56.06133900928792,150.0
2484,59.950657894736835,150.0
2485,61.75986842105264,150.0
2486,58.74613003095975,150.0
2487,61.25193498452012,150.0
2488,60.269930340557266,150.0
2489,59.66041021671826,150.0
2490,61.140673374613,150.0
2491,59.53947368421052,150.0
2492,59.54431114551083,150.0
2493,59.636222910216716,150.0
2494,59.428212074303396,150.0
2495,59.08475232198142,150.0
2496,60.18285603715171,150.0
2497,58.54295665634675,150.0
2498,59.39918730650155,150.0
2499,65.10255417956654,150.0
2500,56.308049535603715,150.0
2501,59.3217879256966,150.0
2502,55.72271671826625,150.0
2503,57.44001547987616,150.0
2504,59.084752321981426,150.0
2505,54.189241486068106,150.0
2506,59.15731424148607,150.0
2507,57.08204334365324,150.0
2508,57.94794891640868,150.0
2509,55.48084365325078,150.0
2510,59.075077399380795,150.0
2511,62.08881578947368,150.0
2512,58.76064241486068,150.0
2513,59.278250773993804,150.0
2514,61.99206656346749,150.0
2515,61.46478328173375,150.0
2516,60.3328173374613,150.0
2517,58.688080495356026,150.0
2518,60.19253095975232,150.0
2519,59.87325851393188,150.0
2520,57.56095201238389,150.0
2521,62.500000000000014,150.0
2522,58.65421826625387,150.0
2523,61.99690402476781,150.0
2524,58.37364551083591,150.0
2525,62.558049535603715,150.0
2526,59.08475232198141,150.0
2527,61.70665634674923,150.0
2528,58.610681114551085,150.0
2529,57.94794891640866,150.0
2530,57.251354489164086,150.0
2531,59.57333591331269,150.0
2532,61.11164860681115,150.0
2533,58.09307275541796,150.0
2534,59.689434984520126,150.0
2535,58.238196594427244,150.0
2536,58.76547987616099,150.0
2537,62.906346749226,150.0
2538,60.023219814241486,150.0
2539,57.686726006191954,150.0
2540,61.15518575851394,150.0
2541,59.95549535603715,150.0
2542,54.16021671826625,150.0
2543,59.40402476780185,150.0
2544,62.29198916408668,150.0
2545,58.08823529411764,150.0
2546,58.1172600619195,150.0
2547,56.87403250773994,150.0
2548,60.71013931888544,150.0
2549,59.79102167182663,150.0
2550,60.78270123839008,150.0
2551,58.14144736842106,150.0
2552,62.15654024767803,150.0
2553,61.711493808049546,150.0
2554,58.5187693498452,150.0
2555,60.87461300309598,150.0
2556,59.41853715170279,150.0
2557,63.41911764705884,150.0
2558,61.71149380804953,150.0
2559,59.520123839009294,150.0
2560,54.73103715170278,150.0
2561,62.712848297213625,150.0
2562,57.73026315789474,150.0
2563,59.76683436532507,150.0
2564,59.23955108359134,150.0
2565,63.119195046439636,150.0
2566,59.428212074303396,150.0
2567,58.325270897832816,150.0
2568,59.13796439628483,150.0
2569,60.1780185758514,150.0
2570,58.576818885448915,150.0
2571,59.62171052631579,150.0
2572,56.77728328173375,150.0
2573,58.53811919504644,150.0
2574,57.44485294117647,150.0
2575,62.712848297213625,150.0
2576,61.28095975232197,150.0
2577,60.729489164086694,150.0
2578,57.29489164086687,150.0
2579,57.07720588235294,150.0
2580,59.113777089783284,150.0
2581,58.571981424148596,150.0
2582,59.510448916408656,150.0
2583,58.88157894736843,150.0
2584,61.22774767801858,150.0
2585,59.99419504643963,150.0
2586,54.068304953560364,150.0
2587,61.42608359133126,150.0
2588,58.7171052631579,150.0
2589,61.455108359133135,150.0
2590,60.627902476780186,150.0
2591,58.48490712074303,150.0
2592,58.84287925696595,150.0
2593,58.891253869969034,150.0
2594,62.02109133126935,150.0
2595,57.619001547987615,150.0
2596,62.756385448916426,150.0
2597,58.60584365325078,150.0
2598,56.47736068111456,150.0
2599,59.06540247678019,150.0
2600,60.61822755417957,150.0
2601,57.56578947368421,150.0
2602,55.858165634674926,150.0
2603,59.48626160990712,150.0
2604,58.39783281733746,150.0
2605,59.4233746130031,150.0
2606,64.70104489164086,150.0
2607,58.82836687306502,150.0
2608,57.27070433436533,150.0
2609,59.05572755417957,150.0
2610,56.70472136222911,150.0
2611,59.31211300309597,150.0
2612,59.50077399380806,150.0
2613,63.27399380804953,150.0
2614,60.55050309597523,150.0
2615,59.47174922600619,150.0
2616,59.93614551083591,150.0
2617,59.6797600619195,150.0
2618,61.67763157894736,150.0
2619,58.23819659442725,150.0
2620,62.42743808049536,150.0
2621,62.80476006191951,150.0
2622,57.24651702786378,150.0
2623,61.488970588235304,150.0
2624,61.98239164086687,150.0
2625,61.80824303405571,150.0
2626,59.45239938080495,150.0
2627,63.82546439628484,150.0
2628,60.68595201238391,150.0
2629,55.76141640866874,150.0
2630,58.992840557275535,150.0
2631,56.980456656346746,150.0
2632,60.41989164086687,150.0
2633,58.978328173374614,150.0
2634,59.181501547987615,150.0
2635,67.19717492260061,150.0
2636,56.646671826625386,150.0
2637,56.95143188854489,150.0
2638,60.04256965944272,150.0
2639,55.732391640866865,150.0
2640,59.77650928792569,150.0
2641,58.518769349845186,150.0
2642,60.618227554179555,150.0
2643,60.018382352941174,150.0
2644,57.851199690402474,150.0
2645,61.48413312693498,150.0
2646,57.65286377708978,150.0
2647,59.399187306501545,150.0
2648,63.719040247678016,150.0
2649,58.963815789473685,150.0
2650,61.585719814241486,150.0
2651,55.82430340557275,150.0
2652,58.25270897832817,150.0
2653,60.255417956656345,150.0
2654,58.70259287925696,150.0
2655,61.43575851393189,150.0
2656,57.372291021671835,150.0
2657,60.92298761609907,150.0
2658,57.4593653250774,150.0
2659,59.99419504643963,150.0
2660,61.85178018575851,150.0
2661,56.158088235294116,150.0
2662,59.5249613003096,150.0
2663,59.74264705882353,150.0
2664,56.18227554179567,150.0
2665,58.82836687306502,150.0
2666,61.02457430340558,150.0
2667,55.5921052631579,150.0
2668,61.56636996904026,150.0
2669,66.67472910216718,150.0
2670,58.58649380804953,150.0
2671,58.24787151702786,150.0
2672,57.87538699690403,150.0
2673,59.42337461300309,150.0
2674,64.88486842105263,150.0
2675,59.15247678018576,150.0
2676,61.0342492260062,150.0
2677,56.48703560371517,150.0
2678,62.17589009287925,150.0
2679,62.67414860681115,150.0
2680,59.95065789473684,150.0
2681,57.30940402476781,150.0
2682,58.12693498452012,150.0
2683,60.61822755417957,150.0
2684,58.56714396284829,150.0
2685,59.4765866873065,150.0
2686,59.96517027863778,150.0
2687,59.91195820433437,150.0
2688,61.295472136222905,150.0
2689,57.8125,150.0
2690,56.85952012383901,150.0
2691,56.63699690402478,150.0
2692,57.69640092879257,150.0
2693,56.26934984520123,150.0
2694,59.82004643962848,150.0
2695,61.653444272445824,150.0
2696,58.22852167182663,150.0
2697,57.435178018575854,150.0
2698,61.34868421052632,150.0
2699,58.05921052631578,150.0
2700,60.913312693498455,150.0
2701,61.12132352941177,150.0
2702,62.81443498452011,150.0
2703,60.294117647058826,150.0
2704,60.62306501547988,150.0
2705,58.107585139318886,150.0
2706,59.45239938080495,150.0
2707,61.7888931888545,150.0
2708,60.603715170278626,150.0
2709,56.656346749225996,150.0
2710,58.27689628482973,150.0
2711,57.68672600619194,150.0
2712,58.33010835913313,150.0
2713,61.67279411764706,150.0
2714,61.247097523219814,150.0
2715,57.54160216718266,150.0
2716,63.5545665634675,150.0
2717,60.14899380804954,150.0
2718,59.25890092879257,150.0
2719,59.59752321981424,150.0
2720,62.45646284829722,150.0
2721,56.612809597523224,150.0
2722,60.71013931888545,150.0
2723,56.9562693498452,150.0
2724,57.5077399380805,150.0
2725,59.534636222910216,150.0
2726,54.52302631578947,150.0
2727,59.97968266253869,150.0
2728,56.39512383900929,150.0
2729,57.36745356037151,150.0
2730,60.057082043343655,150.0
2731,57.918924148606806,150.0
2732,61.784055727554176,150.0
2733,58.238196594427244,150.0
2734,60.5359907120743,150.0
2735,61.42608359133126,150.0
2736,58.697755417956664,150.0
2737,62.156540247678016,150.0
2738,57.889899380804955,150.0
2739,58.40267027863777,150.0
2740,60.690789473684205,150.0
2741,55.01160990712074,150.0
2742,61.38254643962848,150.0
2743,62.558049535603715,150.0
2744,57.45936532507739,150.0
2745,60.719814241486056,150.0
2746,62.48065015479875,150.0
2747,60.942337461300305,150.0
2748,56.143575851393194,150.0
2749,61.726006191950454,150.0
2750,61.31482198142414,150.0
2751,58.591331269349844,150.0
2752,59.568498452012385,150.0
2753,56.815982972136226,150.0
2754,58.194659442724465,150.0
2755,58.25270897832817,150.0
2756,60.627902476780186,150.0
2757,57.415828173374614,150.0
2758,58.93479102167183,150.0
2759,61.55185758513932,150.0
2760,60.158668730650156,150.0
2761,61.150348297213625,150.0
2762,58.22852167182663,150.0
2763,61.90015479876162,150.0
2764,55.68401702786378,150.0
2765,55.674342105263165,150.0
2766,55.52438080495355,150.0
2767,57.21749226006192,150.0
2768,55.82914086687307,150.0
2769,60.65208978328174,150.0
2770,64.30437306501548,150.0
2771,62.88699690402477,150.0
2772,54.76973684210526,150.0
2773,58.48974458204334,150.0
2774,61.12616099071207,150.0
2775,58.13177244582044,150.0
2776,59.84423374613004,150.0
2777,60.119969040247675,150.0
2778,57.41099071207431,150.0
2779,62.142027863777095,150.0
2780,57.11106811145511,150.0
2781,55.93556501547988,150.0
2782,58.40750773993808,150.0
2783,59.81520897832817,150.0
2784,58.528444272445824,150.0
2785,59.11861455108359,150.0
2786,61.469620743034056,150.0
2787,58.4655572755418,150.0
2788,55.084171826625386,150.0
2789,59.14763931888545,150.0
2790,59.17666408668731,150.0
2791,60.995549535603715,150.0
2792,59.29276315789474,150.0
2793,58.267221362229115,150.0
2794,59.66524767801859,150.0
2795,60.80688854489164,150.0
2796,60.603715170278626,150.0
2797,59.350812693498455,150.0
2798,56.9611068111455,150.0
2799,61.08262383900927,150.0
2800,60.942337461300305,150.0
2801,62.48548761609907,150.0
2802,58.305921052631575,150.0
2803,59.40886222910217,150.0
2804,58.073722910216716,150.0
2805,59.83455882352941,150.0
2806,59.418537151702786,150.0
2807,60.5359907120743,150.0
2808,58.04469814241485,150.0
2809,59.05089009287926,150.0
2810,62.94504643962849,150.0
2811,59.53947368421053,150.0
2812,58.8186919504644,150.0
2813,61.595394736842096,150.0
2814,62.770897832817354,150.0
2815,60.0328947368421,150.0
2816,55.72755417956657,150.0
2817,61.38254643962848,150.0
2818,61.25677244582043,150.0
2819,59.40886222910216,150.0
2820,58.673568111455104,150.0
2821,57.37229102167183,150.0
2822,57.96729876160991,150.0
2823,62.84829721362228,150.0
2824,61.919504643962846,150.0
2825,61.198722910216716,150.0
2826,55.335719814241486,150.0
2827,58.325270897832816,150.0
2828,59.529798761609904,150.0
2829,59.650735294117645,150.0
2830,59.59268575851394,150.0
2831,59.39918730650154,150.0
2832,56.61764705882353,150.0
2833,56.98529411764706,150.0
2834,59.92163312693498,150.0
2835,59.32178792569659,150.0
2836,55.64047987616099,150.0
2837,60.284442724458195,150.0
2838,60.80205108359132,150.0
2839,59.3217879256966,150.0
2840,54.55205108359134,150.0
2841,60.81656346749225,150.0
2842,59.636222910216716,150.0
2843,59.65073529411764,150.0
2844,59.98935758513932,150.0
2845,58.867066563467496,150.0
2846,58.0108359133127,150.0
2847,60.869775541795676,150.0
2848,59.921633126934985,150.0
2849,62.96923374613002,150.0
2850,62.49032507739939,150.0
2851,59.89744582043344,150.0
2852,58.80417956656346,150.0
2853,59.98935758513932,150.0
2854,56.07101393188855,150.0
2855,59.25890092879257,150.0
2856,58.75096749226005,150.0
2857,57.599651702786375,150.0
2858,59.40886222910216,150.0
2859,62.10816563467491,150.0
2860,60.56985294117647,150.0
2861,58.77515479876161,150.0
2862,58.91060371517028,150.0
2863,58.34945820433436,150.0
2864,57.164280185758514,150.0
2865,56.965944272445824,150.0
2866,57.517414860681114,150.0
2867,56.27902476780186,150.0
2868,59.418537151702786,150.0
2869,57.26102941176471,150.0
2870,57.73510061919506,150.0
2871,56.3515866873065,150.0
2872,57.37229102167183,150.0
2873,58.4703947368421,150.0
2874,58.528444272445824,150.0
2875,57.94794891640866,150.0
2876,63.60777863777089,150.0
2877,57.280379256965944,150.0
2878,56.42414860681114,150.0
2879,56.04682662538699,150.0
2880,57.797987616099064,150.0
2881,62.350038699690394,150.0
2882,59.71362229102167,150.0
2883,59.984520123839005,150.0
2884,57.83184984520125,150.0
2885,58.50425696594428,150.0
2886,59.00251547987616,150.0
2887,61.2857972136223,150.0
2888,59.39434984520125,150.0
2889,61.687306501547994,150.0
2890,56.22581269349845,150.0
2891,60.97136222910218,150.0
2892,56.898219814241486,150.0
2893,58.08339783281734,150.0
2894,56.35642414860681,150.0
2895,63.01277089783283,150.0
2896,62.26296439628483,150.0
2897,59.64106037151702,150.0
2898,58.22852167182663,150.0
2899,57.52225232198142,150.0
2900,63.515866873065015,150.0
2901,63.28850619195047,150.0
2902,57.55127708978328,150.0
2903,59.18633900928793,150.0
2904,58.10758513931888,150.0
2905,58.3688080495356,150.0
2906,61.03424922600619,150.0
2907,56.883707430340564,150.0
2908,56.69020897832817,150.0
2909,61.237422600619205,150.0
2910,57.294891640866865,150.0
2911,56.39028637770898,150.0
2912,59.002515479876166,150.0
2913,58.378482972136226,150.0
2914,61.842105263157904,150.0
2915,55.601780185758514,150.0
2916,57.54643962848297,150.0
2917,55.606617647058826,150.0
2918,58.683243034055735,150.0
2919,59.31695046439629,150.0
2920,66.45704334365324,150.0
2921,60.9375,150.0
2922,54.818111455108365,150.0
2923,57.23684210526316,150.0
2924,62.02109133126934,150.0
2925,62.66931114551085,150.0
2926,58.58165634674923,150.0
2927,60.565015479876166,150.0
2928,60.71497678018576,150.0
2929,60.68111455108359,150.0
2930,59.06056501547988,150.0
2931,61.15518575851392,150.0
2932,58.27689628482971,150.0
2933,61.34868421052631,150.0
2934,59.28792569659443,150.0
2935,58.475232198142415,150.0
2936,57.46904024767803,150.0
2937,56.72407120743034,150.0
2938,61.140673374613016,150.0
2939,61.4889705882353,150.0
2940,58.93962848297214,150.0
2941,62.17589009287925,150.0
2942,60.7391640866873,150.0
2943,59.46207430340558,150.0
2944,58.06888544891641,150.0
2945,60.153831269349844,150.0
2946,55.77109133126935,150.0
2947,57.130417956656345,150.0
2948,57.585139318885446,150.0
2949,57.66253869969041,150.0
2950,57.23684210526316,150.0
2951,57.34326625386996,150.0
2952,57.067530959752325,150.0
2953,57.261029411764696,150.0
2954,58.14144736842105,150.0
2955,58.08339783281733,150.0
2956,57.43034055727554,150.0
2957,59.650735294117645,150.0
2958,59.379837461300305,150.0
2959,58.28173374613003,150.0
2960,61.875967492260074,150.0
2961,58.71710526315788,150.0
2962,56.87886996904025,150.0
2963,60.11029411764706,150.0
2964,58.43169504643962,150.0
2965,58.00116099071208,150.0
2966,61.4889705882353,150.0
2967,58.209171826625386,150.0
2968,61.242260061919495,150.0
2969,57.991486068111456,150.0
2970,57.99632352941176,150.0
2971,55.64531733746129,150.0
2972,58.2672213622291,150.0
2973,61.88564241486068,150.0
2974,63.26915634674921,150.0
2975,62.35487616099073,150.0
2976,58.707430340557266,150.0
2977,58.3639705882353,150.0
2978,56.216137770897824,150.0
2979,58.2672213622291,150.0
2980,59.984520123839005,150.0
2981,59.52012383900928,150.0
2982,60.41021671826626,150.0
2983,58.97832817337462,150.0
2984,59.54914860681115,150.0
2985,57.164280185758514,150.0
2986,55.76141640866872,150.0
2987,60.976199690402474,150.0
2988,60.69078947368422,150.0
2989,60.173181114551085,150.0
2990,59.07507739938082,150.0
2991,60.405379256965944,150.0
2992,56.38544891640867,150.0
2993,61.42608359133126,150.0
2994,59.539473684210535,150.0
2995,58.412345201238395,150.0
2996,62.258126934984524,150.0
2997,58.36397058823529,150.0
2998,59.21052631578947,150.0
2999,62.050116099071204,150.0
3000,59.965170278637764,150.0
3001,58.08339783281733,150.0
3002,61.18421052631578,150.0
3003,57.93827399380805,150.0
3004,58.92995356037152,150.0
3005,59.752321981424146,150.0
3006,58.968653250774,150.0
3007,58.223684210526315,150.0
3008,55.61629256965944,150.0
3009,56.849845201238395,150.0
3010,65.25735294117646,150.0
3011,58.64938080495356,150.0
3012,60.44891640866872,150.0
3013,58.33978328173374,150.0
3014,57.79798761609907,150.0
3015,61.41157120743034,150.0
3016,60.1828560371517,150.0
3017,61.62925696594428,150.0
3018,58.4703947368421,150.0
3019,56.37577399380805,150.0
3020,61.37287151702787,150.0
3021,56.65150928792569,150.0
3022,62.76606037151701,150.0
3023,55.63564241486068,150.0
3024,55.00677244582043,150.0
3025,59.30727554179566,150.0
3026,58.62519349845201,150.0
3027,61.663119195046434,150.0
3028,59.15731424148606,150.0
3029,62.37422600619195,150.0
3030,60.27476780185757,150.0
3031,56.22097523219814,150.0
3032,55.71787925696595,150.0
3033,55.437306501547994,150.0
3034,62.71768575851392,150.0
3035,57.77863777089783,150.0
3036,59.64589783281734,150.0
3037,61.17453560371517,150.0
3038,61.242260061919495,150.0
3039,58.9202786377709,150.0
3040,60.86010061919505,150.0
3041,59.936145510835914,150.0
3042,59.34113777089783,150.0
3043,63.859326625386984,150.0
3044,61.861455108359145,150.0
3045,56.70955882352941,150.0
3046,60.79237616099071,150.0
3047,58.37848297213623,150.0
3048,61.05359907120744,150.0
3049,60.666602167182674,150.0
3050,60.405379256965944,150.0
3051,55.04547213622292,150.0
3052,58.53811919504644,150.0
3053,56.641834365325074,150.0
3054,62.20975232198142,150.0
3055,59.3701625386997,150.0
3056,59.37016253869968,150.0
3057,62.5,150.0
3058,58.53328173374613,150.0
3059,56.994969040247675,150.0
3060,60.265092879256976,150.0
3061,57.32391640866873,150.0
3062,59.341137770897824,150.0
3063,59.63622291021671,150.0
3064,58.276896284829725,150.0
3065,57.454527863777095,150.0
3066,58.6155185758514,150.0
3067,56.714396284829725,150.0
3068,61.77921826625387,150.0
3069,61.9485294117647,150.0
3070,56.47736068111456,150.0
3071,61.513157894736835,150.0
3072,57.604489164086694,150.0
3073,61.9485294117647,150.0
3074,63.496517027863774,150.0
3075,56.01780185758514,150.0
3076,57.17879256965944,150.0
3077,56.95626934984519,150.0
3078,58.712267801857585,150.0
3079,58.32527089783281,150.0
3080,58.25754643962847,150.0
3081,62.77089783281734,150.0
3082,62.02592879256967,150.0
3083,56.92240712074303,150.0
3084,58.4655572755418,150.0
3085,59.48142414860681,150.0
3086,56.52089783281734,150.0
3087,60.245743034055735,150.0
3088,59.82972136222911,150.0
3089,57.62383900928791,150.0
3090,59.196013931888544,150.0
3091,55.137383900928796,150.0
3092,60.066756965944265,150.0
3093,60.95684984520124,150.0
3094,62.499999999999986,150.0
3095,53.797407120743046,150.0
3096,61.31482198142415,150.0
3097,59.0750773993808,150.0
3098,61.846942724458195,150.0
3099,60.608552631578945,150.0
3100,59.805534055727556,150.0
3101,61.517995356037154,150.0
3102,57.70123839009288,150.0
3103,56.52089783281734,150.0
3104,61.7453560371517,150.0
3105,62.51934984520124,150.0
3106,60.50696594427245,150.0
3107,60.04740712074304,150.0
3108,62.238777089783284,150.0
3109,58.14144736842105,150.0
3110,61.5421826625387,150.0
3111,56.43382352941176,150.0
3112,55.408281733746136,150.0
3113,63.878676470588246,150.0
3114,56.63215944272446,150.0
3115,57.84636222910217,150.0
3116,61.513157894736835,150.0
3117,57.498065015479874,150.0
3118,61.000386996904034,150.0
3119,58.243034055727556,150.0
3120,61.19388544891641,150.0
3121,58.765479876160995,150.0
3122,58.22852167182663,150.0
3123,57.85603715170277,150.0
3124,56.97078173374613,150.0
3125,64.17859907120744,150.0
3126,57.3045665634675,150.0
3127,60.729489164086694,150.0
3128,60.56985294117647,150.0
3129,56.43382352941177,150.0
3130,58.243034055727556,150.0
3131,58.988003095975245,150.0
3132,59.4765866873065,150.0
3133,60.661764705882355,150.0
3134,57.096555727554176,150.0
3135,59.360487616099064,150.0
3136,63.7142027863777,150.0
3137,59.70394736842106,150.0
3138,58.209171826625386,150.0
3139,60.284442724458195,150.0
3140,61.05359907120743,150.0
3141,63.414280185758514,150.0
3142,60.221555727554176,150.0
3143,60.845588235294116,150.0
3144,58.78482972136222,150.0
3145,62.39841331269349,150.0
3146,63.370743034055735,150.0
3147,60.661764705882355,150.0
3148,62.38873839009288,150.0
3149,58.19465944272446,150.0
3150,59.829721362229115,150.0
3151,56.20646284829721,150.0
3152,61.343846749226,150.0
3153,60.31346749226006,150.0
3154,59.77167182662539,150.0
3155,56.85952012383901,150.0
3156,60.265092879256976,150.0
3157,62.64028637770898,150.0
3158,58.73161764705883,150.0
3159,57.638351393188856,150.0
3160,60.3328173374613,150.0
3161,59.210526315789465,150.0
3162,57.92859907120744,150.0
3163,62.093653250774,150.0
3164,57.16911764705882,150.0
3165,60.898800309597526,150.0
3166,61.32449690402477,150.0
3167,58.7219427244582,150.0
3168,61.900154798761605,150.0
3169,54.997097523219814,150.0
3170,62.77089783281734,150.0
3171,61.59539473684211,150.0
3172,57.94794891640868,150.0
3173,61.67763157894736,150.0
3174,64.01412538699691,150.0
3175,63.89802631578949,150.0
3176,59.48626160990711,150.0
3177,55.180921052631575,150.0
3178,58.441369969040245,150.0
3179,62.84345975232197,150.0
3180,56.12422600619195,150.0
3181,57.52225232198142,150.0
3182,60.49729102167183,150.0
3183,63.92221362229103,150.0
3184,57.7641253869969,150.0
3185,57.94794891640866,150.0
3186,59.87325851393189,150.0
3187,60.90363777089783,150.0
3188,55.96458978328173,150.0
3189,58.67356811145512,150.0
3190,61.551857585139324,150.0
3191,58.42202012383901,150.0
3192,58.54295665634675,150.0
3193,62.27747678018576,150.0
3194,60.289280185758514,150.0
3195,60.83591331269349,150.0
3196,57.27070433436531,150.0
3197,61.24226006191951,150.0
3198,62.04527863777089,150.0
3199,58.37364551083592,150.0
3200,58.49941950464396,150.0
3201,55.94040247678018,150.0
3202,57.991486068111456,150.0
3203,54.81327399380805,150.0
3204,56.02747678018576,150.0
3205,57.81733746130031,150.0
3206,61.50832043343653,150.0
3207,59.97484520123839,150.0
3208,58.43653250773993,150.0
3209,60.32797987616098,150.0
3210,60.898800309597526,150.0
3211,61.11648606811144,150.0
3212,62.33068885448917,150.0
3213,60.153831269349844,150.0
3214,61.43575851393189,150.0
3215,59.25406346749225,150.0
3216,60.68595201238389,150.0
3217,59.91679566563467,150.0
3218,61.271284829721374,150.0
3219,57.39647832817338,150.0
3220,57.54160216718266,150.0
3221,61.10197368421051,150.0
3222,60.1828560371517,150.0
3223,59.33146284829722,150.0
3224,58.0108359133127,150.0
3225,60.72465170278639,150.0
3226,59.97484520123839,150.0
3227,59.03637770897833,150.0
3228,57.38680340557275,150.0
3229,59.52012383900927,150.0
3230,59.46207430340557,150.0
3231,58.85255417956656,150.0
3232,60.11513157894737,150.0
3233,61.84694272445821,150.0
3234,59.69427244582043,150.0
3235,61.38738390092879,150.0
3236,59.54431114551084,150.0
3237,60.01354489164086,150.0
3238,56.3032120743034,150.0
3239,58.93479102167182,150.0
3240,62.499999999999986,150.0
3241,58.422020123839005,150.0
3242,60.400541795665625,150.0
3243,60.357004643962846,150.0
3244,59.162151702786375,150.0
3245,57.536764705882355,150.0
3246,58.07372291021672,150.0
3247,57.338428792569665,150.0
3248,58.27689628482972,150.0
3249,60.511803405572756,150.0
3250,61.49380804953559,150.0
3251,59.786184210526315,150.0
3252,58.32527089783281,150.0
3253,59.10893962848297,150.0
3254,61.81308049535604,150.0
3255,60.06191950464396,150.0
3256,59.486261609907125,150.0
3257,60.57952786377708,150.0
3258,58.33494582043344,150.0
3259,55.70336687306502,150.0
3260,63.419117647058826,150.0
3261,58.915441176470594,150.0
3262,60.124806501547994,150.0
3263,64.43982198142416,150.0
3264,58.78966718266253,150.0
3265,58.15595975232198,150.0
3266,54.880998452012385,150.0
3267,61.03424922600619,150.0
3268,60.29895510835913,150.0
3269,58.189821981424146,150.0
3270,55.785603715170275,150.0
3271,55.97910216718266,150.0
3272,59.05572755417956,150.0
3273,54.223103715170275,150.0
3274,60.318304953560364,150.0
3275,60.07159442724458,150.0
3276,58.044698142414866,150.0
3277,54.62461300309597,150.0
3278,61.232585139318886,150.0
3279,57.677051083591344,150.0
3280,62.33552631578947,150.0
3281,59.07991486068112,150.0
3282,61.198722910216716,150.0
3283,59.59752321981424,150.0
3284,58.8235294117647,150.0
3285,58.078560371517035,150.0
3286,59.2250386996904,150.0
3287,57.493227554179555,150.0
3288,59.824883900928796,150.0
3289,60.579527863777095,150.0
3290,59.83939628482972,150.0
3291,60.289280185758514,150.0
3292,60.119969040247675,150.0
3293,59.21052631578948,150.0
3294,59.650735294117645,150.0
3295,59.05572755417957,150.0
3296,58.779992260061924,150.0
3297,59.442724458204324,150.0
3298,57.77863777089784,150.0
3299,63.41911764705881,150.0
3300,62.82894736842104,150.0
3301,62.37422600619193,150.0
3302,58.862229102167184,150.0
3303,63.13370743034055,150.0
3304,61.71149380804952,150.0
3305,58.75580495356037,150.0
3306,59.18633900928792,150.0
3307,60.86010061919505,150.0
3308,61.000386996904034,150.0
3309,60.44891640866874,150.0
3310,58.5236068111455,150.0
3311,61.92917956656347,150.0
3312,57.63351393188855,150.0
3313,63.090170278637785,150.0
3314,59.375,150.0
3315,60.003869969040245,150.0
3316,59.331462848297214,150.0
3317,57.48839009287926,150.0
3318,62.52418730650156,150.0
3319,56.63215944272445,150.0
3320,55.94523993808049,150.0
3321,56.022639318885446,150.0
3322,58.83804179566563,150.0
3323,58.620356037151694,150.0
3324,61.05843653250775,150.0
3325,60.734326625387,150.0
3326,58.862229102167184,150.0
3327,61.05359907120744,150.0
3328,60.71013931888544,150.0
3329,56.98529411764706,150.0
3330,55.930727554179555,150.0
3331,57.98181114551083,150.0
3332,61.72600619195047,150.0
3333,61.179373065015476,150.0
3334,61.31965944272446,150.0
3335,56.06617647058823,150.0
3336,60.20220588235294,150.0
3337,61.469620743034056,150.0
3338,56.661184210526315,150.0
3339,56.74342105263159,150.0
3340,62.766060371517035,150.0
3341,61.266447368421055,150.0
3342,58.25270897832817,150.0
3343,59.02670278637771,150.0
3344,65.58146284829722,150.0
3345,56.72890866873065,150.0
3346,62.562886996904034,150.0
3347,60.16350619195046,150.0
3348,58.494582043343655,150.0
3349,58.33494582043345,150.0
3350,54.01509287925696,150.0
3351,55.76141640866872,150.0
3352,57.95278637770898,150.0
3353,58.596168730650156,150.0
3354,59.505611455108365,150.0
3355,59.15247678018575,150.0
3356,62.142027863777095,150.0
3357,60.21188080495355,150.0
3358,58.238196594427244,150.0
3359,58.67840557275542,150.0
3360,59.09442724458204,150.0
3361,59.52979876160992,150.0
3362,62.204914860681114,150.0
3363,55.75657894736842,150.0
3364,58.23819659442725,150.0
3365,60.129643962848306,150.0
3366,57.164280185758514,150.0
3367,56.63699690402478,150.0
3368,61.44059597523219,150.0
3369,61.44543343653251,150.0
3370,62.62093653250775,150.0
3371,57.08204334365325,150.0
3372,64.64783281733746,150.0
3373,60.942337461300305,150.0
3374,56.8014705882353,150.0
3375,55.79044117647059,150.0
3376,57.91892414860681,150.0
3377,54.69233746130031,150.0
3378,58.412345201238395,150.0
3379,59.312113003095966,150.0
3380,58.03502321981424,150.0
3381,61.49864551083591,150.0
3382,60.41505417956655,150.0
3383,58.32527089783281,150.0
3384,62.05979102167181,150.0
3385,59.041215170278626,150.0
3386,55.88719040247678,150.0
3387,60.003869969040245,150.0
3388,58.122097523219814,150.0
3389,57.1062306501548,150.0
3390,58.40750773993808,150.0
3391,58.34462074303406,150.0
3392,62.97890866873065,150.0
3393,60.88428792569659,150.0
3394,61.813080495356026,150.0
3395,61.11164860681115,150.0
3396,61.996904024767794,150.0
3397,57.33359133126935,150.0
3398,61.493808049535616,150.0
3399,60.44407894736842,150.0
3400,62.03560371517028,150.0
3401,60.390866873065015,150.0
3402,58.78482972136222,150.0
3403,55.688854489164086,150.0
3404,55.11803405572755,150.0
3405,59.42337461300309,150.0
3406,61.58571981424149,150.0
3407,60.173181114551085,150.0
3408,57.11590557275542,150.0
3409,62.30650154798761,150.0
3410,57.55611455108359,150.0
3411,58.27689628482972,150.0
3412,63.47716718266253,150.0
3413,60.79721362229103,150.0
3414,59.166989164086694,150.0
3415,60.74400154798761,150.0
3416,63.423955108359145,150.0
3417,58.04469814241486,150.0
3418,59.970007739938076,150.0
3419,60.84075077399381,150.0
3420,58.86222910216719,150.0
3421,56.22581269349845,150.0
3422,60.231230650154785,150.0
3423,57.46420278637771,150.0
3424,60.25541795665634,150.0
3425,58.55263157894737,150.0
3426,60.071594427244584,150.0
3427,59.05089009287925,150.0
3428,58.542956656346746,150.0
3429,58.99767801857584,150.0
3430,56.72890866873065,150.0
3431,60.37151702786379,150.0
3432,59.57333591331268,150.0
3433,57.159442724458195,150.0
3434,60.21188080495355,150.0
3435,53.37654798761611,150.0
3436,61.363196594427244,150.0
3437,60.82623839009288,150.0
3438,56.41931114551084,150.0
3439,60.54082817337461,150.0
3440,55.8388157894737,150.0
3441,59.43788699690403,150.0
3442,54.861648606811144,150.0
3443,56.71923374613003,150.0
3444,54.90518575851394,150.0
3445,60.70530185758515,150.0
3446,58.41718266253871,150.0
3447,56.30321207430341,150.0
3448,59.703947368421055,150.0
3449,58.16563467492261,150.0
3450,60.85526315789474,150.0
3451,52.641253869969034,150.0
3452,60.26025541795666,150.0
3453,60.28444272445821,150.0
3454,59.6700851393189,150.0
3455,55.84365325077399,150.0
3456,57.5125773993808,150.0
3457,58.659055727554176,150.0
3458,61.73084365325076,150.0
3459,55.85332817337461,150.0
3460,57.909249226006196,150.0
3461,55.616292569659436,150.0
3462,57.39647832817337,150.0
3463,59.747484520123834,150.0
3464,58.27689628482972,150.0
3465,62.30650154798762,150.0
3466,58.84771671826624,150.0
3467,60.20704334365325,150.0
3468,60.41505417956655,150.0
3469,61.33417182662539,150.0
3470,59.771671826625386,150.0
3471,60.58920278637772,150.0
3472,59.902283281733745,150.0
3473,58.56714396284829,150.0
3474,60.357004643962846,150.0
3475,61.247097523219814,150.0
3476,58.55263157894736,150.0
3477,60.835913312693506,150.0
3478,57.319078947368425,150.0
3479,62.983746130030966,150.0
3480,57.8125,150.0
3481,57.92859907120744,150.0
3482,58.75580495356036,150.0
3483,61.261609907120736,150.0
3484,61.77921826625387,150.0
3485,59.171826625387,150.0
3486,60.76818885448917,150.0
3487,60.63273993808049,150.0
3488,60.94717492260061,150.0
3489,59.90712074303405,150.0
3490,60.48277863777089,150.0
3491,62.83378482972136,150.0
3492,61.37770897832817,150.0
3493,58.48974458204334,150.0
3494,56.54024767801858,150.0
3495,60.15383126934984,150.0
3496,58.70259287925697,150.0
3497,62.01625386996904,150.0
3498,57.120743034055714,150.0
3499,63.04663312693498,150.0
3500,59.68943498452012,150.0
3501,59.23955108359134,150.0
3502,61.33417182662539,150.0
3503,59.99903250773994,150.0
3504,58.073722910216716,150.0
3505,60.240905572755416,150.0
3506,55.74206656346749,150.0
3507,59.370162538699695,150.0
3508,60.647252321981405,150.0
3509,59.26857585139318,150.0
3510,57.71091331269349,150.0
3511,60.41989164086687,150.0
3512,60.89396284829721,150.0
3513,60.25058049535604,150.0
3514,58.305921052631575,150.0
3515,60.96652476780185,150.0
3516,52.83958978328173,150.0
3517,60.057082043343655,150.0
3518,60.323142414860676,150.0
3519,57.73993808049536,150.0
3520,58.57681888544893,150.0
3521,59.97968266253871,150.0
3522,62.461300309597526,150.0
3523,58.46555727554179,150.0
3524,55.96458978328173,150.0
3525,56.94659442724457,150.0
3526,61.75503095975232,150.0
3527,60.1344814241486,150.0
3528,59.404024767801864,150.0
3529,54.174729102167184,150.0
3530,56.43382352941177,150.0
3531,60.23123065015479,150.0
3532,59.81037151702786,150.0
3533,58.98800309597523,150.0
3534,58.441369969040245,150.0
3535,59.234713622291025,150.0
3536,60.41989164086687,150.0
3537,58.15112229102167,150.0
3538,61.817917956656345,150.0
3539,60.294117647058826,150.0
3540,60.269930340557266,150.0
3541,59.379837461300305,150.0
3542,59.824883900928796,150.0
3543,57.981811145510825,150.0
3544,56.11455108359133,150.0
3545,59.71845975232197,150.0
3546,56.08068885448917,150.0
3547,60.65208978328174,150.0
3548,58.47039473684211,150.0
3549,55.703366873065015,150.0
3550,55.52438080495356,150.0
3551,56.99980650154799,150.0
3552,60.30379256965945,150.0
3553,62.71768575851394,150.0
3554,64.98161764705883,150.0
3555,59.21052631578948,150.0
3556,57.94311145510836,150.0
3557,61.75503095975232,150.0
3558,57.43034055727554,150.0
3559,60.337654798761605,150.0
3560,61.169698142414866,150.0
3561,60.52147832817337,150.0
3562,59.83939628482972,150.0
3563,62.95955882352941,150.0
3564,61.05843653250775,150.0
3565,55.78076625386997,150.0
3566,61.179373065015476,150.0
3567,60.018382352941174,150.0
3568,57.570626934984524,150.0
3569,58.601006191950475,150.0
3570,61.871130030959755,150.0
3571,59.74264705882353,150.0
3572,58.19949690402477,150.0
3573,58.77515479876161,150.0
3574,61.70181888544891,150.0
3575,60.34732972136223,150.0
3576,60.511803405572756,150.0
3577,57.67221362229102,150.0
3578,59.64589783281733,150.0
3579,58.45104489164086,150.0
3580,58.373645510835914,150.0
3581,60.090944272445824,150.0
3582,56.01780185758514,150.0
3583,61.092298761609904,150.0
3584,56.58862229102168,150.0
3585,58.73161764705882,150.0
3586,62.32585139318885,150.0
3587,59.800696594427244,150.0
3588,56.283862229102155,150.0
3589,62.42260061919504,150.0
3590,58.38815789473684,150.0
3591,59.78618421052631,150.0
3592,57.72542569659442,150.0
3593,59.94582043343653,150.0
3594,58.94446594427244,150.0
3595,58.14628482972136,150.0
3596,58.43169504643963,150.0
3597,55.287345201238395,150.0
3598,57.227167182662534,150.0
3599,60.23606811145511,150.0
3600,60.56985294117647,150.0
3601,60.52631578947369,150.0
3602,60.652089783281724,150.0
3603,53.705495356037154,150.0
3604,55.52438080495356,150.0
3605,59.099264705882355,150.0
3606,57.53676470588236,150.0
3607,56.8014705882353,150.0
3608,56.728908668730654,150.0
3609,60.100619195046434,150.0
3610,61.97271671826625,150.0
3611,59.12345201238391,150.0
3612,59.108939628482986,150.0
3613,58.542956656346746,150.0
3614,57.4593653250774,150.0
3615,59.965170278637764,150.0
3616,57.527089783281724,150.0
3617,62.94504643962849,150.0
3618,62.97890866873065,150.0
3619,55.83397832817337,150.0
3620,63.709365325077385,150.0
3621,58.71226780185758,150.0
3622,56.187113003095966,150.0
3623,59.800696594427244,150.0
3624,63.71420278637771,150.0
3625,55.311532507739926,150.0
3626,60.966524767801864,150.0
3627,64.52205882352942,150.0
3628,58.60584365325078,150.0
3629,58.659055727554176,150.0
3630,59.9313080495356,150.0
3631,61.866292569659436,150.0
3632,56.33707430340558,150.0
3633,61.52767027863777,150.0
3634,58.90576625386997,150.0
3635,57.35294117647059,150.0
3636,60.31346749226006,150.0
3637,62.36938854489163,150.0
3638,60.594040247678016,150.0
3639,59.95065789473685,150.0
3640,60.753676470588225,150.0
3641,61.15034829721364,150.0
3642,60.92298761609907,150.0
3643,56.5015479876161,150.0
3644,60.705301857585134,150.0
3645,58.460719814241486,150.0
3646,64.70104489164085,150.0
3647,60.9858746130031,150.0
3648,59.20085139318886,150.0
3649,60.13931888544891,150.0
3650,54.16021671826625,150.0
3651,59.36532507739939,150.0
3652,57.94311145510836,150.0
3653,60.3811919504644,150.0
3654,62.05495356037152,150.0
3655,63.452979876160995,150.0
3656,58.107585139318886,150.0
3657,57.84152476780186,150.0
3658,56.48703560371517,150.0
3659,62.37906346749225,150.0
3660,57.08204334365325,150.0
3661,61.10197368421053,150.0
3662,58.48490712074303,150.0
3663,61.542182662538686,150.0
3664,59.40402476780186,150.0
3665,61.571207430340564,150.0
3666,59.50561145510835,150.0
3667,61.11164860681114,150.0
3668,59.67008513931888,150.0
3669,55.17608359133127,150.0
3670,58.663893188854495,150.0
3671,58.673568111455104,150.0
3672,62.68382352941177,150.0
3673,58.94930340557275,150.0
3674,62.81443498452013,150.0
3675,58.56230650154799,150.0
3676,56.71923374613002,150.0
3677,56.21613777089783,150.0
3678,60.308630030959755,150.0
3679,60.88428792569659,150.0
3680,63.29818111455109,150.0
3681,62.08397832817338,150.0
3682,60.734326625387,150.0
3683,55.00677244582043,150.0
3684,55.98877708978328,150.0
3685,59.820046439628484,150.0
3686,57.328753869969034,150.0
3687,57.29489164086687,150.0
3688,59.65073529411765,150.0
3689,61.52767027863776,150.0
3690,59.69910990712074,150.0
3691,60.47794117647059,150.0
3692,59.88777089783281,150.0
3693,55.67917956656347,150.0
3694,62.761222910216716,150.0
3695,57.79315015479875,150.0
3696,59.81037151702785,150.0
3697,59.20085139318886,150.0
3698,58.38815789473684,150.0
3699,56.24032507739938,150.0
3700,56.9562693498452,150.0
3701,58.59616873065016,150.0
3702,61.31965944272446,150.0
3703,60.23606811145511,150.0
3704,63.307856037151716,150.0
3705,57.35294117647059,150.0
3706,59.2734133126935,150.0
3707,60.45375386996904,150.0
3708,59.10893962848298,150.0
3709,59.142801857585134,150.0
3710,58.79934210526316,150.0
3711,56.791795665634666,150.0
3712,63.69001547987615,150.0
3713,57.68672600619195,150.0
3714,62.538699690402474,150.0
3715,60.59887770897832,150.0
3716,56.656346749226,150.0
3717,60.071594427244584,150.0
3718,56.09520123839009,150.0
3719,60.671439628482965,150.0
3720,61.44059597523219,150.0
3721,55.68885448916408,150.0
3722,58.765479876160995,150.0
3723,61.324496904024784,150.0
3724,62.06462848297213,150.0
3725,59.10410216718267,150.0
3726,55.12287151702787,150.0
3727,60.80688854489164,150.0
3728,60.2360681114551,150.0
3729,54.755224458204346,150.0
3730,57.348103715170275,150.0
3731,60.95201238390093,150.0
3732,58.87674148606811,150.0
3733,57.23200464396285,150.0
3734,61.04392414860681,150.0
3735,59.67976006191951,150.0
3736,59.752321981424146,150.0
3737,56.574109907120736,150.0
3738,59.08475232198142,150.0
3739,60.66176470588234,150.0
3740,61.61474458204333,150.0
3741,61.53250773993809,150.0
3742,61.22774767801858,150.0
3743,57.86087461300309,150.0
3744,59.641060371517035,150.0
3745,58.542956656346746,150.0
3746,60.07643188854489,150.0
3747,58.862229102167184,150.0
3748,62.79508513931887,150.0
3749,58.43653250773994,150.0
3750,61.774380804953566,150.0
3751,56.23065015479876,150.0
3752,60.23606811145511,150.0
3753,59.91679566563468,150.0
3754,59.38951238390092,150.0
3755,59.40886222910216,150.0
3756,58.625193498452006,150.0
3757,58.15112229102168,150.0
3758,61.87596749226006,150.0
3759,60.81172600619195,150.0
3760,56.84984520123839,150.0
3761,61.174535603715185,150.0
3762,59.72329721362229,150.0
3763,60.327979876160995,150.0
3764,59.413699690402474,150.0
3765,58.12693498452012,150.0
3766,60.003869969040245,150.0
3767,63.394930340557266,150.0
3768,61.51315789473685,150.0
3769,62.3500386996904,150.0
3770,61.256772445820445,150.0
3771,60.27960526315789,150.0
3772,60.40054179566564,150.0
3773,60.18285603715171,150.0
3774,57.81733746130032,150.0
3775,59.849071207430335,150.0
3776,60.23123065015481,150.0
3777,61.97271671826625,150.0
3778,59.824883900928796,150.0
3779,60.405379256965944,150.0
3780,60.671439628482965,150.0
3781,57.352941176470594,150.0
3782,58.92995356037153,150.0
3783,59.892608359133135,150.0
3784,61.7985681114551,150.0
3785,58.00116099071207,150.0
3786,60.5843653250774,150.0
3787,57.39647832817338,150.0
3788,56.845007739938076,150.0
3789,62.10332817337461,150.0
3790,59.14763931888545,150.0
3791,60.1828560371517,150.0
3792,59.89744582043345,150.0
3793,57.98181114551084,150.0
3794,60.05224458204334,150.0
3795,62.58223684210527,150.0
3796,58.054373065015476,150.0
3797,58.044698142414866,150.0
3798,57.59965170278638,150.0
3799,55.33571981424149,150.0
3800,57.880224458204324,150.0
3801,58.26238390092879,150.0
3802,59.16215170278638,150.0
3803,55.26315789473684,150.0
3804,61.45027089783283,150.0
3805,55.935565015479874,150.0
3806,61.28579721362229,150.0
3807,61.16969814241485,150.0
3808,55.77592879256966,150.0
3809,56.404798761609904,150.0
3810,60.98587461300309,150.0
3811,62.69349845201239,150.0
3812,60.80688854489164,150.0
3813,61.21807275541795,150.0
3814,56.59345975232199,150.0
3815,62.12267801857585,150.0
3816,62.108165634674926,150.0
3817,58.09307275541795,150.0
3818,60.17318111455109,150.0
3819,57.80282507739939,150.0
3820,61.25677244582043,150.0
3821,54.15054179566563,150.0
3822,61.66795665634674,150.0
3823,55.73239164086687,150.0
3824,57.178792569659436,150.0
3825,62.379063467492266,150.0
3826,58.06888544891641,150.0
3827,63.33204334365325,150.0
3828,56.48703560371517,150.0
3829,59.69910990712074,150.0
3830,58.39299535603715,150.0
3831,59.82004643962848,150.0
3832,57.48839009287925,150.0
3833,58.02534829721362,150.0
3834,59.437886996904034,150.0
3835,58.509094427244584,150.0
3836,59.29276315789474,150.0
3837,57.72542569659443,150.0
3838,58.97349071207431,150.0
3839,59.33630030959752,150.0
3840,58.001160990712066,150.0
3841,57.93343653250774,150.0
3842,60.057082043343655,150.0
3843,57.89957430340558,150.0
3844,66.11358359133126,150.0
3845,60.39086687306502,150.0
3846,59.75715944272445,150.0
3847,60.41989164086687,150.0
3848,60.187693498452006,150.0
3849,58.75096749226006,150.0
3850,60.98103715170278,150.0
3851,61.32449690402477,150.0
3852,58.68324303405573,150.0
3853,59.370162538699695,150.0
3854,62.50483746130032,150.0
3855,58.63486842105262,150.0
3856,56.782120743034056,150.0
3857,59.38467492260061,150.0
3858,57.64318885448916,150.0
3859,63.109520123839005,150.0
3860,64.00928792569661,150.0
3861,60.00870743034056,150.0
3862,61.46478328173374,150.0
3863,58.28173374613003,150.0
3864,61.18904798761611,150.0
3865,60.80205108359134,150.0
3866,60.4295665634675,150.0
3867,56.71923374613004,150.0
3868,56.31288699690402,150.0
3869,63.15789473684211,150.0
3870,64.68169504643961,150.0
3871,58.8670665634675,150.0
3872,59.665247678018574,150.0
3873,58.054373065015476,150.0
3874,62.58223684210526,150.0
3875,59.08475232198142,150.0
3876,57.93343653250775,150.0
3877,60.1344814241486,150.0
3878,58.407507739938076,150.0
3879,60.75367647058823,150.0
3880,56.51606037151702,150.0
3881,54.72136222910217,150.0
3882,60.086106811145505,150.0
3883,58.23819659442725,150.0
3884,57.42550309597523,150.0
3885,55.4953560371517,150.0
3886,58.871904024767794,150.0
3887,61.18904798761609,150.0
3888,56.811145510835914,150.0
3889,56.57410990712074,150.0
3890,54.479489164086694,150.0
3891,62.53386222910217,150.0
3892,63.1046826625387,150.0
3893,60.95684984520124,150.0
3894,59.35081269349845,150.0
3895,60.869775541795676,150.0
3896,59.12828947368422,150.0
3897,65.02515479876162,150.0
3898,65.23316563467492,150.0
3899,63.249806501547994,150.0
3900,59.53463622291021,150.0
3901,62.61609907120744,150.0
3902,59.849071207430356,150.0
3903,58.949303405572756,150.0
3904,58.243034055727556,150.0
3905,57.976973684210535,150.0
3906,58.23819659442725,150.0
3907,61.52767027863777,150.0
3908,61.32449690402477,150.0
3909,58.67840557275542,150.0
3910,57.986648606811144,150.0
3911,56.337074303405586,150.0
3912,55.925890092879264,150.0
3913,57.64802631578948,150.0
3914,59.30243808049535,150.0
3915,57.386803405572756,150.0
3916,58.910603715170275,150.0
3917,56.15808823529412,150.0
3918,58.431695046439636,150.0
3919,57.12074303405573,150.0
3920,62.504837461300305,150.0
3921,63.457817337461286,150.0
3922,61.222910216718276,150.0
3923,58.13660990712075,150.0
3924,60.52147832817338,150.0
3925,58.4655572755418,150.0
3926,63.00309597523219,150.0
3927,66.81985294117646,150.0
3928,58.66389318885449,150.0
3929,59.5249613003096,150.0
3930,64.20762383900927,150.0
3931,58.23819659442725,150.0
3932,60.11029411764705,150.0
3933,62.02592879256966,150.0
3934,56.830495356037154,150.0
3935,60.40054179566564,150.0
3936,54.1360294117647,150.0
3937,58.16563467492259,150.0
3938,60.63757739938081,150.0
3939,61.76470588235294,150.0
3940,64.6188080495356,150.0
3941,61.64860681114551,150.0
3942,55.42763157894737,150.0
3943,59.64589783281733,150.0
3944,59.32662538699691,150.0
3945,62.16621517027864,150.0
3946,58.80417956656347,150.0
3947,61.97755417956655,150.0
3948,60.874613003095966,150.0
3949,56.88854489164086,150.0
3950,60.70046439628483,150.0
3951,58.43169504643963,150.0
3952,59.81520897832817,150.0
3953,60.90363777089783,150.0
3954,58.19465944272446,150.0
3955,58.82836687306502,150.0
3956,59.66041021671827,150.0
3957,60.73432662538701,150.0
3958,57.69156346749225,150.0
3959,63.912538699690394,150.0
3960,54.97291021671827,150.0
3961,55.500193498452006,150.0
3962,58.6155185758514,150.0
3963,56.869195046439636,150.0
3964,56.22581269349845,150.0
3965,61.96787925696596,150.0
3966,64.6623452012384,150.0
3967,62.9595588235294,150.0
3968,58.61068111455109,150.0
3969,54.5375386996904,150.0
3970,62.75638544891641,150.0
3971,56.7047213622291,150.0
3972,60.308630030959755,150.0
3973,58.610681114551085,150.0
3974,58.944465944272444,150.0
3975,63.477167182662534,150.0
3976,58.03502321981424,150.0
3977,61.35352167182663,150.0
3978,60.8891253869969,150.0
3979,58.339783281733745,150.0
3980,60.255417956656345,150.0
3981,55.67434210526316,150.0
3982,59.6797600619195,150.0
3983,59.54431114551083,150.0
3984,60.3860294117647,150.0
3985,61.750193498452006,150.0
3986,60.758513931888544,150.0
3987,58.015673374613,150.0
3988,58.0108359133127,150.0
3989,58.69775541795666,150.0
3990,59.505611455108365,150.0
3991,58.22852167182663,150.0
3992,59.63138544891641,150.0
3993,63.79160216718266,150.0
3994,60.961687306501545,150.0
3995,56.835332817337466,150.0
3996,56.92240712074303,150.0
3997,57.95278637770897,150.0
3998,59.73297213622291,150.0
3999,59.907120743034056,150.0
4000,59.66041021671827,150.0
4001,60.08126934984519,150.0
4002,58.08823529411765,150.0
4003,57.17879256965944,150.0
4004,56.912732198142415,150.0
4005,58.86222910216718,150.0
4006,60.274767801857585,150.0
4007,58.141447368421055,150.0
4008,60.06191950464396,150.0
4009,55.90170278637771,150.0
4010,57.12558049535604,150.0
4011,57.84152476780184,150.0
4012,56.191950464396285,150.0
4013,59.5249613003096,150.0
4014,57.37229102167184,150.0
4015,58.8235294117647,150.0
4016,59.689434984520126,150.0
4017,59.56366099071208,150.0
4018,62.678986068111435,150.0
4019,56.53057275541795,150.0
4020,62.504837461300305,150.0
4021,57.817337461300305,150.0
4022,57.39647832817337,150.0
4023,59.196013931888544,150.0
4024,57.90441176470588,150.0
4025,58.35913312693498,150.0
4026,62.68382352941177,150.0
4027,61.266447368421055,150.0
4028,58.95897832817337,150.0
4029,57.56095201238389,150.0
4030,57.256191950464405,150.0
4031,56.796633126934985,150.0
4032,60.16834365325077,150.0
4033,59.01219040247678,150.0
4034,56.540247678018574,150.0
4035,57.817337461300305,150.0
4036,59.02186532507739,150.0
4037,63.520704334365334,150.0
4038,58.330108359133135,150.0
4039,55.234133126934985,150.0
4040,54.71652476780186,150.0
4041,61.242260061919495,150.0
4042,61.36803405572755,150.0
4043,59.74264705882353,150.0
4044,62.45162538699691,150.0
4045,57.75928792569659,150.0
4046,53.51199690402477,150.0
4047,59.95549535603715,150.0
4048,58.247871517027875,150.0
4049,58.542956656346746,150.0
4050,57.27554179566563,150.0
4051,58.43653250773993,150.0
4052,58.60100619195046,150.0
4053,58.81385448916408,150.0
4054,59.31211300309597,150.0
4055,55.62113003095975,150.0
4056,60.671439628482965,150.0
4057,56.59829721362229,150.0
4058,57.94794891640867,150.0
4059,59.03637770897833,150.0
4060,61.06327399380804,150.0
4061,58.605843653250766,150.0
4062,61.62441950464396,150.0
4063,59.418537151702786,150.0
4064,63.312693498452006,150.0
4065,60.284442724458195,150.0
4066,59.2250386996904,150.0
4067,58.760642414860676,150.0
4068,56.511222910216716,150.0
4069,60.55534055727555,150.0
4070,60.38602941176472,150.0
4071,63.0079334365325,150.0
4072,57.86571207430341,150.0
4073,59.82004643962848,150.0
4074,60.318304953560364,150.0
4075,57.06269349845201,150.0
4076,56.965944272445824,150.0
4077,60.81656346749225,150.0
4078,59.29760061919505,150.0
4079,56.72407120743034,150.0
4080,56.274187306501545,150.0
4081,54.784249226006196,150.0
4082,58.591331269349844,150.0
4083,57.93343653250775,150.0
4084,58.14628482972135,150.0
4085,57.406153250774004,150.0
4086,61.996904024767794,150.0
4087,56.965944272445824,150.0
4088,60.207043343653254,150.0
4089,60.64725232198142,150.0
4090,58.96381578947369,150.0
4091,60.44407894736842,150.0
4092,54.08281733746131,150.0
4093,54.64880030959752,150.0
4094,61.890479876160995,150.0
4095,57.217492260061924,150.0
4096,59.462074303405565,150.0
4097,58.39299535603715,150.0
4098,57.51741486068111,150.0
4099,59.31695046439628,150.0
4100,57.46420278637771,150.0
4101,61.10681114551085,150.0
4102,62.137190402476776,150.0
4103,58.29140866873065,150.0
4104,59.87325851393189,150.0
4105,57.856037151702786,150.0
4106,58.13660990712075,150.0
4107,57.25135448916408,150.0
4108,60.50212848297213,150.0
4109,59.92163312693498,150.0
4110,59.341137770897845,150.0
4111,58.1075851393189,150.0
4112,58.09307275541796,150.0
4113,62.31133900928793,150.0
4114,58.262383900928796,150.0
4115,61.70665634674921,150.0
4116,58.77999226006193,150.0
4117,59.66524767801857,150.0
4118,58.27689628482972,150.0
4119,65.93459752321982,150.0
4120,58.44620743034055,150.0
4121,59.59268575851394,150.0
4122,60.41021671826626,150.0
4123,55.0406346749226,150.0
4124,59.26373839009289,150.0
4125,55.398606811145505,150.0
4126,58.34945820433436,150.0
4127,58.48490712074303,150.0
4128,56.84017027863777,150.0
4129,59.805534055727556,150.0
4130,60.3328173374613,150.0
4131,62.11784055727554,150.0
4132,57.58997678018576,150.0
4133,57.6625386996904,150.0
4134,59.563660990712066,150.0
4135,59.466911764705884,150.0
4136,57.68188854489164,150.0
4137,63.506191950464384,150.0
4138,59.18150154798762,150.0
4139,58.29140866873065,150.0
4140,61.005224458204324,150.0
4141,61.37287151702787,150.0
4142,60.45859133126935,150.0
4143,57.70607585139318,150.0
