sample_id,accuracy,window_size
0,60.535990712074316,100.0
1,58.9202786377709,100.0
2,61.179373065015476,100.0
3,61.875967492260045,100.0
4,62.398413312693506,100.0
5,61.25193498452013,100.0
6,62.5,100.0
7,58.47523219814242,100.0
8,60.361842105263165,100.0
9,60.11513157894736,100.0
10,61.03908668730651,100.0
11,57.27070433436532,100.0
12,59.10410216718267,100.0
13,58.13177244582043,100.0
14,56.849845201238395,100.0
15,58.721942724458195,100.0
16,57.92376160990712,100.0
17,56.743421052631575,100.0
18,60.158668730650156,100.0
19,60.927825077399376,100.0
20,58.43653250773994,100.0
21,56.64183436532508,100.0
22,54.30050309597523,100.0
23,58.46555727554179,100.0
24,55.137383900928796,100.0
25,61.25193498452012,100.0
26,59.86358359133127,100.0
27,58.43653250773995,100.0
28,57.04334365325077,100.0
29,56.93691950464397,100.0
30,59.40886222910216,100.0
31,58.692917956656345,100.0
32,57.21749226006192,100.0
33,56.017801857585134,100.0
34,59.26373839009288,100.0
35,60.20220588235295,100.0
36,58.88641640866872,100.0
37,57.89473684210527,100.0
38,56.77728328173374,100.0
39,57.8125,100.0
40,60.06675696594427,100.0
41,59.950657894736835,100.0
42,56.404798761609904,100.0
43,59.24438854489164,100.0
44,60.50696594427245,100.0
45,62.10332817337462,100.0
46,61.842105263157904,100.0
47,60.265092879256976,100.0
48,59.62171052631579,100.0
49,54.32952786377709,100.0
50,58.45104489164087,100.0
51,58.07856037151703,100.0
52,62.35971362229103,100.0
53,59.06056501547988,100.0
54,56.965944272445824,100.0
55,55.67917956656347,100.0
56,59.24438854489165,100.0
57,61.44543343653251,100.0
58,63.47232972136224,100.0
59,59.59752321981424,100.0
60,59.17666408668731,100.0
61,57.79798761609907,100.0
62,62.25328947368422,100.0
63,61.0874613003096,100.0
64,58.983165634674926,100.0
65,58.741292569659436,100.0
66,58.88641640866873,100.0
67,63.13370743034055,100.0
68,63.81095201238389,100.0
69,58.84771671826626,100.0
70,58.726780185758514,100.0
71,54.32952786377709,100.0
72,56.453173374613,100.0
73,53.69098297213622,100.0
74,62.65963622291021,100.0
75,59.984520123839005,100.0
76,59.94582043343652,100.0
77,57.604489164086694,100.0
78,62.4516253869969,100.0
79,59.297600619195045,100.0
80,58.04469814241487,100.0
81,58.38332043343654,100.0
82,58.60584365325077,100.0
83,58.02534829721362,100.0
84,62.5483746130031,100.0
85,59.97000773993808,100.0
86,60.44891640866872,100.0
87,58.141447368421055,100.0
88,57.29489164086687,100.0
89,61.57120743034055,100.0
90,59.00251547987616,100.0
91,58.02051083591331,100.0
92,60.31346749226006,100.0
93,61.84210526315789,100.0
94,59.59752321981425,100.0
95,59.5249613003096,100.0
96,57.71091331269349,100.0
97,65.26702786377709,100.0
98,60.61822755417957,100.0
99,57.76412538699691,100.0
100,61.145510835913306,100.0
101,57.169117647058826,100.0
102,62.97890866873065,100.0
103,58.01083591331269,100.0
104,61.0439241486068,100.0
105,61.36803405572756,100.0
106,62.1904024767802,100.0
107,63.820626934984524,100.0
108,63.27399380804953,100.0
109,58.44136996904025,100.0
110,59.85874613003096,100.0
111,57.2078173374613,100.0
112,60.124806501547994,100.0
113,62.77089783281734,100.0
114,54.90518575851393,100.0
115,59.046052631578945,100.0
116,61.67763157894736,100.0
117,59.85390866873065,100.0
118,57.90441176470588,100.0
119,57.62383900928793,100.0
120,58.175309597523224,100.0
121,57.46420278637771,100.0
122,59.07991486068112,100.0
123,64.1544117647059,100.0
124,56.646671826625386,100.0
125,61.222910216718276,100.0
126,59.69910990712075,100.0
127,54.70201238390093,100.0
128,63.25464396284831,100.0
129,58.42685758513932,100.0
130,59.171826625387,100.0
131,60.086106811145505,100.0
132,56.308049535603715,100.0
133,61.619582043343655,100.0
134,61.92434210526315,100.0
135,60.395704334365334,100.0
136,62.05011609907121,100.0
137,61.93885448916409,100.0
138,58.83804179566563,100.0
139,59.2250386996904,100.0
140,60.17801857585138,100.0
141,60.018382352941174,100.0
142,63.77708978328174,100.0
143,63.143382352941174,100.0
144,62.87248452012385,100.0
145,57.48355263157894,100.0
146,55.621130030959755,100.0
147,55.89202786377709,100.0
148,61.31482198142414,100.0
149,59.82004643962848,100.0
150,58.867066563467496,100.0
151,56.322561919504636,100.0
152,60.68111455108359,100.0
153,60.71981424148606,100.0
154,60.545665634674926,100.0
155,58.6687306501548,100.0
156,60.09578173374613,100.0
157,56.13390092879257,100.0
158,63.970588235294116,100.0
159,63.32236842105264,100.0
160,59.00735294117648,100.0
161,63.520704334365334,100.0
162,61.96304179566565,100.0
163,64.25116099071207,100.0
164,61.9920665634675,100.0
165,58.6155185758514,100.0
166,60.73916408668732,100.0
167,62.01141640866874,100.0
168,59.58784829721362,100.0
169,60.3860294117647,100.0
170,56.15808823529412,100.0
171,58.19465944272446,100.0
172,63.86900154798762,100.0
173,59.93614551083592,100.0
174,59.56849845201239,100.0
175,62.38873839009288,100.0
176,61.75986842105264,100.0
177,59.15731424148606,100.0
178,61.86145510835913,100.0
179,54.32952786377708,100.0
180,57.46420278637771,100.0
181,55.33088235294117,100.0
182,58.51876934984519,100.0
183,55.364744582043336,100.0
184,59.6749226006192,100.0
185,62.591911764705884,100.0
186,56.18711300309597,100.0
187,58.05921052631578,100.0
188,58.141447368421055,100.0
189,65.48955108359134,100.0
190,56.593459752321984,100.0
191,64.60429566563467,100.0
192,61.90982972136223,100.0
193,62.46613777089783,100.0
194,61.75986842105264,100.0
195,59.89744582043345,100.0
196,61.79373065015481,100.0
197,58.963815789473685,100.0
198,59.91679566563467,100.0
199,57.99148606811145,100.0
200,57.285216718266255,100.0
201,62.66447368421053,100.0
202,58.93962848297214,100.0
203,59.58301083591331,100.0
204,60.49245356037152,100.0
205,59.800696594427244,100.0
206,59.29276315789474,100.0
207,61.99690402476781,100.0
208,55.335719814241486,100.0
209,56.27902476780186,100.0
210,59.940982972136226,100.0
211,61.41157120743034,100.0
212,63.15305727554179,100.0
213,58.60100619195046,100.0
214,63.32236842105262,100.0
215,61.67763157894736,100.0
216,64.40595975232199,100.0
217,58.90576625386996,100.0
218,59.12828947368421,100.0
219,55.76625386996904,100.0
220,59.515286377708975,100.0
221,61.61474458204334,100.0
222,54.194078947368425,100.0
223,60.11513157894736,100.0
224,58.794504643962846,100.0
225,62.08881578947369,100.0
226,57.74477554179567,100.0
227,59.21052631578948,100.0
228,64.13022445820432,100.0
229,59.6749226006192,100.0
230,62.34036377708979,100.0
231,62.81443498452011,100.0
232,62.77089783281734,100.0
233,60.090944272445824,100.0
234,62.41776315789474,100.0
235,64.0238003095975,100.0
236,62.03076625386996,100.0
237,59.83455882352941,100.0
238,58.70743034055727,100.0
239,59.50561145510836,100.0
240,58.784829721362236,100.0
241,57.067530959752325,100.0
242,57.943111455108365,100.0
243,66.58765479876162,100.0
244,62.48065015479876,100.0
245,59.723297213622295,100.0
246,62.35487616099071,100.0
247,58.5236068111455,100.0
248,60.76818885448917,100.0
249,63.153057275541805,100.0
250,58.56714396284829,100.0
251,57.33842879256967,100.0
252,57.99148606811145,100.0
253,57.44485294117647,100.0
254,62.82894736842104,100.0
255,61.06811145510836,100.0
256,58.14144736842105,100.0
257,59.50077399380804,100.0
258,59.20568885448917,100.0
259,56.54992260061919,100.0
260,57.53192724458204,100.0
261,61.784055727554176,100.0
262,62.77089783281734,100.0
263,60.690789473684205,100.0
264,58.94930340557275,100.0
265,59.86358359133127,100.0
266,61.95820433436532,100.0
267,63.58842879256966,100.0
268,57.92859907120743,100.0
269,58.842879256965944,100.0
270,61.750193498452006,100.0
271,59.45723684210526,100.0
272,63.40944272445821,100.0
273,62.76122291021673,100.0
274,59.68459752321982,100.0
275,63.94640092879257,100.0
276,63.92221362229102,100.0
277,60.06675696594427,100.0
278,59.15247678018576,100.0
279,65.91524767801857,100.0
280,59.58784829721362,100.0
281,59.02670278637771,100.0
282,58.04953560371517,100.0
283,62.41292569659442,100.0
284,59.82004643962848,100.0
285,65.02031733746128,100.0
286,55.519543343653254,100.0
287,59.05089009287925,100.0
288,55.20510835913312,100.0
289,61.517995356037154,100.0
290,58.60100619195047,100.0
291,56.25967492260062,100.0
292,56.47736068111455,100.0
293,61.80824303405572,100.0
294,59.660410216718276,100.0
295,62.64028637770898,100.0
296,60.25058049535604,100.0
297,59.873258513931894,100.0
298,59.86842105263158,100.0
299,62.51934984520125,100.0
300,61.51799535603715,100.0
301,58.08823529411765,100.0
302,55.97426470588235,100.0
303,62.63544891640866,100.0
304,59.38467492260062,100.0
305,58.69291795665635,100.0
306,56.10971362229102,100.0
307,60.908475232198136,100.0
308,59.50561145510836,100.0
309,58.88641640866872,100.0
310,61.07778637770898,100.0
311,57.33359133126935,100.0
312,60.352167182662534,100.0
313,58.8186919504644,100.0
314,62.29198916408668,100.0
315,58.276896284829725,100.0
316,59.142801857585134,100.0
317,61.34868421052632,100.0
318,58.257546439628484,100.0
319,55.10352167182663,100.0
320,65.44117647058825,100.0
321,59.408862229102176,100.0
322,56.825657894736835,100.0
323,55.16640866873065,100.0
324,62.18556501547988,100.0
325,59.4765866873065,100.0
326,63.16273219814243,100.0
327,62.0404411764706,100.0
328,61.987229102167184,100.0
329,55.63564241486068,100.0
330,58.34462074303405,100.0
331,64.59462074303406,100.0
332,58.155959752321984,100.0
333,58.35429566563468,100.0
334,57.02399380804953,100.0
335,61.93885448916409,100.0
336,61.963041795665625,100.0
337,61.45994582043345,100.0
338,58.90576625386996,100.0
339,59.278250773993804,100.0
340,55.882352941176464,100.0
341,57.85603715170278,100.0
342,59.81037151702785,100.0
343,64.58010835913312,100.0
344,62.36938854489164,100.0
345,60.298955108359145,100.0
346,59.568498452012385,100.0
347,59.466911764705884,100.0
348,58.09791021671826,100.0
349,58.45104489164087,100.0
350,60.594040247678016,100.0
351,59.83455882352941,100.0
352,61.179373065015476,100.0
353,59.6265479876161,100.0
354,60.49729102167183,100.0
355,61.63409442724457,100.0
356,56.82082043343653,100.0
357,62.91118421052631,100.0
358,65.54760061919504,100.0
359,59.776509287925705,100.0
360,61.503482972136226,100.0
361,60.41989164086687,100.0
362,63.20143188854489,100.0
363,62.093653250774,100.0
364,59.80069659442725,100.0
365,62.16137770897832,100.0
366,58.0108359133127,100.0
367,58.03986068111454,100.0
368,64.6284829721362,100.0
369,58.70743034055727,100.0
370,62.63061145510837,100.0
371,63.19659442724457,100.0
372,56.09036377708979,100.0
373,58.99767801857586,100.0
374,61.87596749226006,100.0
375,56.72890866873064,100.0
376,61.75503095975233,100.0
377,60.511803405572756,100.0
378,59.495936532507756,100.0
379,61.218072755417964,100.0
380,61.609907120743024,100.0
381,61.3390092879257,100.0
382,61.18904798761611,100.0
383,58.16079721362229,100.0
384,63.191756965944265,100.0
385,57.99632352941177,100.0
386,62.69349845201239,100.0
387,58.131772445820424,100.0
388,58.80901702786378,100.0
389,57.13041795665635,100.0
390,59.26373839009288,100.0
391,55.804953560371516,100.0
392,60.11029411764706,100.0
393,61.50832043343653,100.0
394,59.40402476780186,100.0
395,56.77728328173375,100.0
396,59.926470588235304,100.0
397,61.803405572755416,100.0
398,59.61203560371517,100.0
399,57.70607585139319,100.0
400,61.64376934984519,100.0
401,60.90363777089783,100.0
402,61.3970588235294,100.0
403,59.60719814241485,100.0
404,61.6921439628483,100.0
405,59.03154024767802,100.0
406,58.126934984520126,100.0
407,64.34307275541798,100.0
408,62.33552631578947,100.0
409,56.37577399380805,100.0
410,59.98935758513932,100.0
411,57.17395510835914,100.0
412,55.29702012383901,100.0
413,63.530379256965915,100.0
414,65.74593653250773,100.0
415,63.767414860681114,100.0
416,63.59810371517027,100.0
417,56.62248452012385,100.0
418,55.36474458204334,100.0
419,60.68595201238389,100.0
420,54.827786377708975,100.0
421,62.79024767801858,100.0
422,60.60371517027864,100.0
423,62.62577399380807,100.0
424,61.06327399380805,100.0
425,58.23335913312693,100.0
426,60.03289473684211,100.0
427,62.529024767801836,100.0
428,62.93053405572756,100.0
429,58.726780185758514,100.0
430,62.45162538699689,100.0
431,58.944465944272444,100.0
432,58.68324303405573,100.0
433,61.092298761609904,100.0
434,62.02109133126934,100.0
435,60.400541795665625,100.0
436,62.87732198142413,100.0
437,63.4578173374613,100.0
438,58.54779411764705,100.0
439,63.520704334365334,100.0
440,60.16834365325078,100.0
441,55.161571207430335,100.0
442,60.221555727554176,100.0
443,59.53947368421052,100.0
444,63.8641640866873,100.0
445,63.975425696594435,100.0
446,60.932662538699695,100.0
447,61.31482198142415,100.0
448,58.83320433436532,100.0
449,58.65421826625387,100.0
450,55.964589783281724,100.0
451,63.39009287925696,100.0
452,57.37229102167183,100.0
453,59.984520123839005,100.0
454,65.63951238390094,100.0
455,58.13660990712074,100.0
456,56.70955882352941,100.0
457,61.21323529411763,100.0
458,61.72116873065015,100.0
459,59.046052631578945,100.0
460,61.67279411764706,100.0
461,61.19388544891641,100.0
462,56.31772445820433,100.0
463,58.23335913312694,100.0
464,59.26373839009289,100.0
465,59.84907120743034,100.0
466,62.437113003095966,100.0
467,61.78889318885447,100.0
468,54.56656346749225,100.0
469,60.318304953560364,100.0
470,58.85739164086687,100.0
471,60.531153250774,100.0
472,62.72736068111455,100.0
473,60.221555727554176,100.0
474,59.24922600619194,100.0
475,58.19465944272446,100.0
476,60.06191950464397,100.0
477,56.94659442724458,100.0
478,60.15866873065016,100.0
479,58.17530959752322,100.0
480,62.741873065015476,100.0
481,59.29276315789474,100.0
482,63.409442724458195,100.0
483,61.60506965944272,100.0
484,62.03560371517028,100.0
485,65.85236068111456,100.0
486,60.90363777089783,100.0
487,58.291408668730654,100.0
488,61.25677244582043,100.0
489,61.67763157894736,100.0
490,60.47310371517027,100.0
491,56.346749226006196,100.0
492,60.3328173374613,100.0
493,59.85390866873064,100.0
494,56.825657894736835,100.0
495,59.95065789473684,100.0
496,60.54082817337462,100.0
497,59.370162538699695,100.0
498,59.71362229102167,100.0
499,62.219427244582036,100.0
500,59.01219040247678,100.0
501,58.45104489164086,100.0
502,59.62654798761611,100.0
503,59.72329721362229,100.0
504,56.62248452012384,100.0
505,61.880804953560364,100.0
506,58.7171052631579,100.0
507,61.02941176470587,100.0
508,58.204334365325074,100.0
509,55.37441950464397,100.0
510,60.68595201238389,100.0
511,59.75715944272446,100.0
512,59.10410216718267,100.0
513,58.33494582043344,100.0
514,60.10061919504643,100.0
515,56.81114551083592,100.0
516,59.13312693498453,100.0
517,57.73993808049536,100.0
518,58.60584365325077,100.0
519,57.672213622291025,100.0
520,60.3811919504644,100.0
521,60.08126934984519,100.0
522,59.331462848297214,100.0
523,61.160023219814256,100.0
524,61.22291021671826,100.0
525,62.04044117647059,100.0
526,59.9796826625387,100.0
527,57.61416408668731,100.0
528,58.194659442724465,100.0
529,58.98316563467492,100.0
530,57.39164086687306,100.0
531,59.47658668730651,100.0
532,57.8125,100.0
533,60.119969040247675,100.0
534,60.13931888544892,100.0
535,56.32256191950464,100.0
536,58.218846749226,100.0
537,61.47445820433436,100.0
538,64.64783281733746,100.0
539,60.139318885448915,100.0
540,59.800696594427244,100.0
541,60.86977554179566,100.0
542,61.68246904024768,100.0
543,56.946594427244584,100.0
544,62.69833591331268,100.0
545,58.82836687306502,100.0
546,57.498065015479874,100.0
547,60.46826625386996,100.0
548,57.47387770897833,100.0
549,56.99496904024769,100.0
550,63.43846749226006,100.0
551,62.4516253869969,100.0
552,62.50967492260061,100.0
553,60.19736842105263,100.0
554,58.99767801857585,100.0
555,58.683243034055714,100.0
556,57.93343653250774,100.0
557,57.99148606811145,100.0
558,56.92724458204334,100.0
559,57.38680340557275,100.0
560,62.08397832817338,100.0
561,59.45723684210526,100.0
562,62.26296439628483,100.0
563,63.839976780185744,100.0
564,59.67008513931889,100.0
565,58.426857585139324,100.0
566,58.1656346749226,100.0
567,60.5843653250774,100.0
568,58.44136996904025,100.0
569,60.75367647058823,100.0
570,62.766060371517035,100.0
571,61.90982972136224,100.0
572,60.71013931888544,100.0
573,59.86358359133128,100.0
574,58.88157894736842,100.0
575,61.885642414860676,100.0
576,58.610681114551085,100.0
577,58.344620743034056,100.0
578,57.43517801857585,100.0
579,61.69698142414863,100.0
580,62.38390092879257,100.0
581,56.322561919504636,100.0
582,63.33204334365326,100.0
583,60.47310371517028,100.0
584,59.76199690402477,100.0
585,63.06598297213621,100.0
586,61.039086687306494,100.0
587,59.616873065015476,100.0
588,65.0203173374613,100.0
589,63.46749226006191,100.0
590,55.398606811145505,100.0
591,63.17240712074304,100.0
592,56.864357585139324,100.0
593,55.93072755417956,100.0
594,60.59887770897832,100.0
595,59.84423374613003,100.0
596,60.758513931888544,100.0
597,61.07778637770898,100.0
598,59.90712074303405,100.0
599,57.59481424148607,100.0
600,59.379837461300305,100.0
601,57.84636222910217,100.0
602,58.68808049535603,100.0
603,61.140673374613,100.0
604,54.38273993808049,100.0
605,57.44485294117647,100.0
606,57.76412538699691,100.0
607,58.28657120743035,100.0
608,58.3688080495356,100.0
609,55.5437306501548,100.0
610,60.100619195046434,100.0
611,59.7281346749226,100.0
612,59.48142414860681,100.0
613,62.538699690402474,100.0
614,58.70743034055727,100.0
615,59.79102167182663,100.0
616,55.83397832817337,100.0
617,60.71013931888545,100.0
618,59.674922600619205,100.0
619,63.49651702786379,100.0
620,56.84984520123839,100.0
621,56.932082043343655,100.0
622,63.82546439628483,100.0
623,58.43169504643963,100.0
624,59.99903250773995,100.0
625,62.28715170278639,100.0
626,59.4282120743034,100.0
627,60.99554953560373,100.0
628,58.42685758513932,100.0
629,61.37770897832817,100.0
630,63.515866873065015,100.0
631,57.440015479876166,100.0
632,56.16776315789474,100.0
633,61.13099845201239,100.0
634,59.64589783281733,100.0
635,62.48548761609908,100.0
636,64.94775541795664,100.0
637,60.216718266253864,100.0
638,62.296826625387,100.0
639,59.08958978328173,100.0
640,54.66815015479876,100.0
641,62.53386222910217,100.0
642,59.89744582043345,100.0
643,57.875386996904034,100.0
644,63.27399380804953,100.0
645,64.58010835913313,100.0
646,60.48761609907121,100.0
647,60.04256965944273,100.0
648,59.49593653250775,100.0
649,57.648026315789465,100.0
650,59.82488390092879,100.0
651,57.40615325077399,100.0
652,59.205688854489175,100.0
653,57.74477554179567,100.0
654,62.678986068111456,100.0
655,58.7703173374613,100.0
656,61.79856811145511,100.0
657,56.288699690402474,100.0
658,65.64918730650155,100.0
659,60.061919504643974,100.0
660,59.771671826625386,100.0
661,58.576818885448915,100.0
662,59.89260835913313,100.0
663,59.18150154798761,100.0
664,62.074303405572756,100.0
665,65.30089009287924,100.0
666,58.24787151702786,100.0
667,62.45646284829722,100.0
668,58.32043343653251,100.0
669,56.158088235294116,100.0
670,58.83804179566563,100.0
671,59.4765866873065,100.0
672,61.57604489164087,100.0
673,55.79044117647059,100.0
674,60.990712074303396,100.0
675,61.39222136222911,100.0
676,57.71575077399381,100.0
677,63.912538699690394,100.0
678,59.36532507739938,100.0
679,60.44891640866872,100.0
680,57.92376160990712,100.0
681,58.775154798761605,100.0
682,61.150348297213625,100.0
683,60.9375,100.0
684,62.258126934984524,100.0
685,56.869195046439636,100.0
686,60.207043343653254,100.0
687,55.5437306501548,100.0
688,62.79992260061919,100.0
689,60.92298761609907,100.0
690,61.31482198142414,100.0
691,59.22987616099071,100.0
692,61.49864551083592,100.0
693,61.28579721362229,100.0
694,58.33010835913313,100.0
695,61.63893188854489,100.0
696,62.843459752321984,100.0
697,59.31211300309598,100.0
698,58.80417956656347,100.0
699,57.8608746130031,100.0
700,60.550503095975245,100.0
701,61.8034055727554,100.0
702,63.733552631578945,100.0
703,59.065402476780186,100.0
704,64.73974458204334,100.0
705,61.25193498452013,100.0
706,61.556695046439636,100.0
707,61.358359133126925,100.0
708,61.23742260061919,100.0
709,59.53463622291022,100.0
710,63.62712848297213,100.0
711,62.75154798761609,100.0
712,60.453753869969034,100.0
713,59.42821207430341,100.0
714,59.766834365325074,100.0
715,59.35081269349845,100.0
716,60.15866873065015,100.0
717,59.14280185758513,100.0
718,55.50503095975233,100.0
719,61.0874613003096,100.0
720,59.268575851393194,100.0
721,60.139318885448915,100.0
722,63.07082043343653,100.0
723,60.34249226006191,100.0
724,59.50077399380804,100.0
725,57.701238390092875,100.0
726,58.15112229102167,100.0
727,60.04740712074304,100.0
728,55.16640866873065,100.0
729,63.477167182662534,100.0
730,60.99071207430341,100.0
731,56.801470588235304,100.0
732,61.76470588235294,100.0
733,59.76199690402477,100.0
734,59.67492260061918,100.0
735,60.482778637770906,100.0
736,58.16563467492261,100.0
737,57.841524767801864,100.0
738,58.94446594427245,100.0
739,61.12132352941177,100.0
740,59.64106037151703,100.0
741,59.4765866873065,100.0
742,57.609326625387,100.0
743,60.99071207430341,100.0
744,58.23819659442724,100.0
745,56.89338235294117,100.0
746,57.9624613003096,100.0
747,58.40750773993808,100.0
748,60.04256965944272,100.0
749,56.3999613003096,100.0
750,62.42260061919505,100.0
751,58.151122291021665,100.0
752,56.82082043343653,100.0
753,57.88022445820433,100.0
754,57.19814241486068,100.0
755,61.37770897832817,100.0
756,57.58030185758514,100.0
757,56.6611842105263,100.0
758,58.949303405572756,100.0
759,60.294117647058826,100.0
760,55.06965944272446,100.0
761,56.05650154798761,100.0
762,58.58649380804953,100.0
763,61.469620743034056,100.0
764,60.14899380804953,100.0
765,61.33417182662539,100.0
766,58.8186919504644,100.0
767,61.76470588235294,100.0
768,64.6188080495356,100.0
769,59.205688854489175,100.0
770,56.245162538699695,100.0
771,56.34191176470589,100.0
772,57.98181114551084,100.0
773,60.11996904024767,100.0
774,59.53947368421053,100.0
775,59.65557275541796,100.0
776,58.19949690402477,100.0
777,66.39899380804953,100.0
778,60.758513931888544,100.0
779,56.27902476780186,100.0
780,56.45801083591331,100.0
781,57.807662538699695,100.0
782,58.24787151702786,100.0
783,58.98800309597522,100.0
784,62.18556501547988,100.0
785,63.7142027863777,100.0
786,63.2014318885449,100.0
787,59.47658668730651,100.0
788,56.443498452012385,100.0
789,57.96729876160991,100.0
790,61.411571207430356,100.0
791,60.95201238390093,100.0
792,59.24438854489164,100.0
793,60.48277863777089,100.0
794,60.46342879256967,100.0
795,66.6795665634675,100.0
796,58.91060371517028,100.0
797,59.452399380804955,100.0
798,60.59887770897832,100.0
799,59.49593653250775,100.0
800,61.116486068111456,100.0
801,60.10061919504643,100.0
802,57.14009287925696,100.0
803,60.395704334365334,100.0
804,56.656346749226,100.0
805,58.81869195046439,100.0
806,63.19175696594428,100.0
807,57.98181114551084,100.0
808,59.67008513931888,100.0
809,58.659055727554176,100.0
810,63.93672600619196,100.0
811,62.65963622291022,100.0
812,58.871904024767794,100.0
813,60.68111455108359,100.0
814,62.591911764705884,100.0
815,58.8719040247678,100.0
816,60.15866873065016,100.0
817,60.0328947368421,100.0
818,58.24787151702786,100.0
819,57.63351393188855,100.0
820,62.60158668730651,100.0
821,56.883707430340564,100.0
822,56.53057275541795,100.0
823,57.14009287925697,100.0
824,60.13448142414861,100.0
825,57.74477554179566,100.0
826,60.308630030959755,100.0
827,57.251354489164086,100.0
828,58.315595975232185,100.0
829,58.29140866873065,100.0
830,59.45723684210526,100.0
831,56.62248452012384,100.0
832,61.953366873065015,100.0
833,60.31830495356038,100.0
834,58.29140866873065,100.0
835,63.09500773993809,100.0
836,60.86493808049536,100.0
837,61.280959752321984,100.0
838,58.08823529411766,100.0
839,58.83320433436533,100.0
840,60.50696594427245,100.0
841,58.55746904024767,100.0
842,65.8330108359133,100.0
843,58.93479102167183,100.0
844,62.83862229102168,100.0
845,60.70046439628483,100.0
846,57.14493034055728,100.0
847,58.5236068111455,100.0
848,58.67356811145512,100.0
849,62.209752321981405,100.0
850,62.901509287925684,100.0
851,62.42743808049536,100.0
852,60.579527863777095,100.0
853,54.00058049535603,100.0
854,60.34732972136223,100.0
855,62.71768575851394,100.0
856,60.62306501547989,100.0
857,60.913312693498455,100.0
858,60.081269349845215,100.0
859,60.352167182662534,100.0
860,62.42260061919505,100.0
861,56.47736068111455,100.0
862,63.153057275541805,100.0
863,60.221555727554176,100.0
864,60.79721362229103,100.0
865,64.88003095975232,100.0
866,58.74613003095974,100.0
867,55.27767027863778,100.0
868,57.45452786377709,100.0
869,55.650154798761605,100.0
870,59.108939628482965,100.0
871,59.834558823529406,100.0
872,62.591911764705884,100.0
873,55.43730650154799,100.0
874,55.00193498452012,100.0
875,59.800696594427244,100.0
876,57.85119969040248,100.0
877,60.51664086687306,100.0
878,57.32391640866873,100.0
879,59.84423374613004,100.0
880,60.758513931888544,100.0
881,62.31617647058823,100.0
882,62.127515479876166,100.0
883,62.22426470588237,100.0
884,59.21052631578947,100.0
885,63.71420278637771,100.0
886,60.72465170278639,100.0
887,63.24013157894736,100.0
888,61.092298761609904,100.0
889,57.1594427244582,100.0
890,61.750193498452006,100.0
891,57.536764705882355,100.0
892,61.78889318885449,100.0
893,61.45510835913313,100.0
894,62.906346749226,100.0
895,61.56153250773994,100.0
896,59.66041021671827,100.0
897,65.13157894736842,100.0
898,60.594040247678016,100.0
899,61.22291021671826,100.0
900,61.280959752321984,100.0
901,62.18556501547987,100.0
902,56.04198916408669,100.0
903,54.842298761609904,100.0
904,63.394930340557266,100.0
905,56.757933436532504,100.0
906,59.520123839009294,100.0
907,58.978328173374614,100.0
908,61.02457430340558,100.0
909,59.341137770897824,100.0
910,61.75019349845202,100.0
911,62.616099071207415,100.0
912,62.41776315789473,100.0
913,55.650154798761605,100.0
914,58.74613003095974,100.0
915,59.39434984520123,100.0
916,60.086106811145505,100.0
917,62.7612229102167,100.0
918,62.906346749226,100.0
919,59.53947368421053,100.0
920,57.37712848297214,100.0
921,61.329334365325074,100.0
922,58.76064241486068,100.0
923,58.83804179566563,100.0
924,58.397832817337466,100.0
925,62.78057275541795,100.0
926,60.642414860681114,100.0
927,55.20027089783281,100.0
928,61.79373065015481,100.0
929,57.65286377708978,100.0
930,59.046052631578945,100.0
931,58.29140866873065,100.0
932,59.84907120743033,100.0
933,63.2594814241486,100.0
934,63.06598297213621,100.0
935,60.36667956656347,100.0
936,60.46342879256966,100.0
937,57.61900154798761,100.0
938,60.182856037151694,100.0
939,64.37693498452012,100.0
940,58.21400928792569,100.0
941,57.34326625386996,100.0
942,59.81037151702785,100.0
943,60.79237616099071,100.0
944,63.09984520123838,100.0
945,62.89183436532509,100.0
946,56.28386222910216,100.0
947,58.779992260061924,100.0
948,57.43034055727554,100.0
949,60.898800309597526,100.0
950,61.12616099071209,100.0
951,58.16079721362229,100.0
952,57.01431888544892,100.0
953,56.33707430340558,100.0
954,58.26238390092879,100.0
955,58.330108359133135,100.0
956,54.50367647058823,100.0
957,61.600232198142415,100.0
958,63.757739938080505,100.0
959,61.116486068111456,100.0
960,64.61397058823529,100.0
961,63.26431888544892,100.0
962,58.054373065015476,100.0
963,58.53811919504645,100.0
964,60.82623839009288,100.0
965,58.09307275541795,100.0
966,61.590557275541805,100.0
967,63.13370743034055,100.0
968,59.03637770897832,100.0
969,59.012190402476776,100.0
970,60.294117647058826,100.0
971,60.89880030959751,100.0
972,59.0218653250774,100.0
973,59.13796439628483,100.0
974,57.754450464396285,100.0
975,60.53115325077398,100.0
976,59.35565015479876,100.0
977,60.00870743034055,100.0
978,56.17743808049536,100.0
979,61.750193498452006,100.0
980,59.563660990712066,100.0
981,60.46826625386998,100.0
982,62.68866099071206,100.0
983,56.22097523219814,100.0
984,62.63544891640868,100.0
985,64.78328173374612,100.0
986,61.45510835913313,100.0
987,59.108939628482965,100.0
988,62.461300309597526,100.0
989,58.74613003095975,100.0
990,58.9734907120743,100.0
991,57.502902476780186,100.0
992,61.37287151702785,100.0
993,58.51393188854489,100.0
994,62.42260061919505,100.0
995,62.41292569659442,100.0
996,54.94388544891641,100.0
997,60.50212848297213,100.0
998,55.8484907120743,100.0
999,61.16002321981424,100.0
1000,60.1344814241486,100.0
1001,61.866292569659436,100.0
1002,61.803405572755416,100.0
1003,59.868421052631575,100.0
1004,60.579527863777095,100.0
1005,59.81037151702786,100.0
1006,59.4814241486068,100.0
1007,60.129643962848306,100.0
1008,65.1702786377709,100.0
1009,58.89609133126935,100.0
1010,57.9624613003096,100.0
1011,61.41157120743034,100.0
1012,57.54643962848298,100.0
1013,58.89125386996904,100.0
1014,59.93614551083592,100.0
1015,56.58378482972136,100.0
1016,59.568498452012385,100.0
1017,57.19330495356037,100.0
1018,59.29276315789473,100.0
1019,58.23335913312694,100.0
1020,57.599651702786375,100.0
1021,62.93537151702785,100.0
1022,58.68808049535604,100.0
1023,57.64802631578947,100.0
1024,57.79315015479876,100.0
1025,61.70181888544892,100.0
1026,61.82275541795667,100.0
1027,62.38390092879256,100.0
1028,63.69485294117647,100.0
1029,65.3202399380805,100.0
1030,62.108165634674926,100.0
1031,56.92240712074303,100.0
1032,59.8297213622291,100.0
1033,63.78192724458205,100.0
1034,61.71633126934984,100.0
1035,59.04121517027863,100.0
1036,63.8061145510836,100.0
1037,59.91195820433437,100.0
1038,57.99148606811144,100.0
1039,59.350812693498455,100.0
1040,58.81385448916408,100.0
1041,62.57256191950464,100.0
1042,59.616873065015476,100.0
1043,58.97349071207431,100.0
1044,61.42124613003096,100.0
1045,59.51044891640866,100.0
1046,58.68808049535603,100.0
1047,63.172407120743024,100.0
1048,59.45239938080494,100.0
1049,63.54005417956658,100.0
1050,60.850425696594435,100.0
1051,63.01277089783283,100.0
1052,58.833204334365334,100.0
1053,61.80824303405572,100.0
1054,57.14493034055728,100.0
1055,63.046633126934985,100.0
1056,56.93691950464396,100.0
1057,64.11571207430339,100.0
1058,56.35642414860681,100.0
1059,64.43498452012385,100.0
1060,61.67763157894738,100.0
1061,59.56366099071207,100.0
1062,55.82430340557275,100.0
1063,58.53811919504643,100.0
1064,59.05089009287926,100.0
1065,58.65421826625386,100.0
1066,63.59810371517028,100.0
1067,60.10545665634674,100.0
1068,60.87461300309598,100.0
1069,61.4938080495356,100.0
1070,55.016447368421055,100.0
1071,61.527670278637785,100.0
1072,60.70530185758515,100.0
1073,60.869775541795676,100.0
1074,61.329334365325074,100.0
1075,58.31559597523219,100.0
1076,59.47658668730651,100.0
1077,60.879450464396285,100.0
1078,62.891834365325074,100.0
1079,61.343846749226,100.0
1080,61.22774767801858,100.0
1081,61.11164860681115,100.0
1082,62.33068885448917,100.0
1083,58.03018575851394,100.0
1084,59.800696594427244,100.0
1085,65.22832817337462,100.0
1086,54.75522445820433,100.0
1087,58.65421826625387,100.0
1088,61.32933436532509,100.0
1089,62.45646284829721,100.0
1090,60.50212848297213,100.0
1091,62.23877708978327,100.0
1092,63.694852941176485,100.0
1093,58.586493808049525,100.0
1094,60.78270123839008,100.0
1095,61.029411764705884,100.0
1096,61.01006191950464,100.0
1097,61.116486068111456,100.0
1098,58.62519349845201,100.0
1099,58.90576625386998,100.0
1100,56.424148606811144,100.0
1101,61.726006191950454,100.0
1102,63.26431888544891,100.0
1103,60.023219814241486,100.0
1104,59.43788699690403,100.0
1105,57.657701238390096,100.0
1106,60.990712074303396,100.0
1107,58.00116099071208,100.0
1108,59.16215170278639,100.0
1109,62.872484520123834,100.0
1110,56.825657894736835,100.0
1111,59.26857585139319,100.0
1112,58.05437306501547,100.0
1113,55.737229102167184,100.0
1114,59.786184210526315,100.0
1115,57.93827399380804,100.0
1116,62.98374613003096,100.0
1117,53.531346749226,100.0
1118,60.80688854489164,100.0
1119,61.28579721362229,100.0
1120,56.70955882352941,100.0
1121,62.2049148606811,100.0
1122,67.55030959752322,100.0
1123,63.54005417956657,100.0
1124,62.98374613003096,100.0
1125,59.39434984520124,100.0
1126,61.75503095975233,100.0
1127,61.76470588235293,100.0
1128,58.5187693498452,100.0
1129,61.01006191950464,100.0
1130,58.91544117647059,100.0
1131,64.89938080495357,100.0
1132,56.777283281733745,100.0
1133,56.31772445820433,100.0
1134,59.60719814241485,100.0
1135,61.517995356037154,100.0
1136,60.913312693498455,100.0
1137,61.09713622291022,100.0
1138,58.4703947368421,100.0
1139,62.01141640866874,100.0
1140,58.46555727554179,100.0
1141,58.963815789473685,100.0
1142,60.884287925696604,100.0
1143,55.97910216718266,100.0
1144,57.29972910216719,100.0
1145,60.86010061919505,100.0
1146,57.84152476780185,100.0
1147,56.43866099071209,100.0
1148,61.06327399380805,100.0
1149,55.80979102167183,100.0
1150,58.54295665634675,100.0
1151,56.516060371517035,100.0
1152,59.84423374613002,100.0
1153,62.7950851393189,100.0
1154,59.433049535603715,100.0
1155,56.98045665634675,100.0
1156,62.37422600619193,100.0
1157,62.20975232198142,100.0
1158,58.42685758513932,100.0
1159,59.5249613003096,100.0
1160,60.4392414860681,100.0
1161,60.5843653250774,100.0
1162,59.89260835913312,100.0
1163,60.37635448916408,100.0
1164,56.83533281733747,100.0
1165,59.612035603715164,100.0
1166,59.23471362229103,100.0
1167,58.13177244582044,100.0
1168,60.87461300309598,100.0
1169,60.08610681114551,100.0
1170,60.390866873065015,100.0
1171,55.22929566563469,100.0
1172,59.11861455108359,100.0
1173,62.42260061919504,100.0
1174,62.703173374613016,100.0
1175,54.440789473684205,100.0
1176,58.72678018575851,100.0
1177,60.20220588235294,100.0
1178,59.79102167182663,100.0
1179,57.58997678018576,100.0
1180,64.95743034055727,100.0
1181,63.5545665634675,100.0
1182,63.041795665634666,100.0
1183,62.61609907120743,100.0
1184,62.44678792569659,100.0
1185,64.1011996904025,100.0
1186,59.69427244582043,100.0
1187,56.10971362229102,100.0
1188,63.27399380804953,100.0
1189,59.341137770897824,100.0
1190,62.446787925696604,100.0
1191,60.574690402476776,100.0
1192,57.03366873065016,100.0
1193,61.99206656346749,100.0
1194,57.70607585139318,100.0
1195,59.66041021671826,100.0
1196,60.64725232198142,100.0
1197,62.13235294117647,100.0
1198,62.872484520123834,100.0
1199,60.77302631578947,100.0
1200,60.72465170278639,100.0
1201,58.27205882352941,100.0
1202,65.75561145510835,100.0
1203,62.31617647058823,100.0
1204,57.75928792569658,100.0
1205,57.691563467492266,100.0
1206,56.28386222910216,100.0
1207,63.98510061919505,100.0
1208,61.70181888544891,100.0
1209,59.66524767801858,100.0
1210,62.05979102167184,100.0
1211,55.887190402476776,100.0
1212,59.97000773993808,100.0
1213,63.7142027863777,100.0
1214,61.750193498452006,100.0
1215,58.79934210526316,100.0
1216,60.74883900928793,100.0
1217,60.390866873065015,100.0
1218,63.30301857585138,100.0
1219,58.68324303405573,100.0
1220,62.05011609907121,100.0
1221,60.25058049535604,100.0
1222,57.31424148606812,100.0
1223,56.58378482972137,100.0
1224,60.308630030959755,100.0
1225,61.846942724458195,100.0
1226,63.66582817337461,100.0
1227,60.52631578947369,100.0
1228,60.41989164086687,100.0
1229,63.16756965944272,100.0
1230,54.22310371517027,100.0
1231,60.357004643962846,100.0
1232,59.74264705882353,100.0
1233,59.500773993808046,100.0
1234,62.05495356037151,100.0
1235,56.19195046439628,100.0
1236,60.003869969040245,100.0
1237,61.556695046439636,100.0
1238,63.346555727554176,100.0
1239,57.65286377708979,100.0
1240,58.102747678018574,100.0
1241,58.38332043343654,100.0
1242,55.200270897832816,100.0
1243,60.642414860681114,100.0
1244,60.41505417956657,100.0
1245,60.76335139318886,100.0
1246,63.9173761609907,100.0
1247,60.3860294117647,100.0
1248,63.95607585139319,100.0
1249,60.40054179566564,100.0
1250,61.43575851393189,100.0
1251,56.1000386996904,100.0
1252,57.05301857585139,100.0
1253,62.58707430340558,100.0
1254,61.99690402476782,100.0
1255,62.24361455108359,100.0
1256,61.65828173374613,100.0
1257,57.63351393188856,100.0
1258,59.89260835913312,100.0
1259,61.01973684210527,100.0
1260,60.95201238390093,100.0
1261,57.991486068111456,100.0
1262,62.296826625387,100.0
1263,59.370162538699695,100.0
1264,65.81849845201239,100.0
1265,61.832430340557266,100.0
1266,60.10545665634675,100.0
1267,57.96729876160991,100.0
1268,60.56985294117647,100.0
1269,58.44620743034054,100.0
1270,62.41776315789474,100.0
1271,61.26160990712075,100.0
1272,64.55108359133128,100.0
1273,66.09907120743034,100.0
1274,55.48568111455108,100.0
1275,59.14763931888544,100.0
1276,59.29276315789474,100.0
1277,59.35081269349845,100.0
1278,57.8125,100.0
1279,57.27554179566563,100.0
1280,64.30921052631578,100.0
1281,60.45859133126935,100.0
1282,60.8407507739938,100.0
1283,61.39705882352941,100.0
1284,55.9452399380805,100.0
1285,60.21188080495356,100.0
1286,58.87674148606811,100.0
1287,62.35971362229102,100.0
1288,55.572755417956664,100.0
1289,63.791602167182674,100.0
1290,58.13660990712074,100.0
1291,63.951238390092854,100.0
1292,67.47291021671826,100.0
1293,58.88157894736841,100.0
1294,60.13931888544892,100.0
1295,63.080495356037154,100.0
1296,58.073722910216716,100.0
1297,62.238777089783284,100.0
1298,58.30592105263158,100.0
1299,61.392221362229094,100.0
1300,62.04527863777089,100.0
1301,59.90712074303405,100.0
1302,61.6389318885449,100.0
1303,63.114357585139324,100.0
1304,55.587267801857585,100.0
1305,60.090944272445824,100.0
1306,59.24438854489164,100.0
1307,61.266447368421055,100.0
1308,58.538119195046434,100.0
1309,55.61629256965944,100.0
1310,60.487616099071204,100.0
1311,54.79392414860681,100.0
1312,57.51257739938081,100.0
1313,59.4282120743034,100.0
1314,59.5733359133127,100.0
1315,61.967879256965944,100.0
1316,61.16486068111453,100.0
1317,63.21110681114551,100.0
1318,57.64802631578947,100.0
1319,56.91273219814241,100.0
1320,56.93691950464397,100.0
1321,63.02244582043343,100.0
1322,59.7765092879257,100.0
1323,59.21536377708978,100.0
1324,61.469620743034056,100.0
1325,61.44543343653251,100.0
1326,59.19117647058823,100.0
1327,62.9015092879257,100.0
1328,59.11377708978329,100.0
1329,60.95684984520124,100.0
1330,61.53250773993809,100.0
1331,62.72252321981424,100.0
1332,62.91118421052631,100.0
1333,55.858165634674926,100.0
1334,61.37287151702787,100.0
1335,60.182856037151694,100.0
1336,59.44272445820434,100.0
1337,61.07778637770898,100.0
1338,55.306695046439636,100.0
1339,61.80824303405572,100.0
1340,61.58571981424149,100.0
1341,59.583010835913306,100.0
1342,64.48819659442724,100.0
1343,59.529798761609904,100.0
1344,59.73780959752322,100.0
1345,59.244388544891635,100.0
1346,61.62925696594428,100.0
1347,59.515286377708975,100.0
1348,58.818691950464384,100.0
1349,60.289280185758514,100.0
1350,55.00677244582044,100.0
1351,58.99767801857586,100.0
1352,56.38544891640867,100.0
1353,57.62867647058824,100.0
1354,57.033668730650156,100.0
1355,56.961106811145505,100.0
1356,62.36938854489164,100.0
1357,59.30727554179567,100.0
1358,61.03908668730651,100.0
1359,60.265092879256976,100.0
1360,62.21942724458205,100.0
1361,61.40189628482972,100.0
1362,59.31211300309598,100.0
1363,58.28173374613003,100.0
1364,58.60100619195046,100.0
1365,56.82082043343652,100.0
1366,61.803405572755416,100.0
1367,57.86571207430342,100.0
1368,62.79024767801858,100.0
1369,60.46342879256966,100.0
1370,58.80417956656346,100.0
1371,58.68808049535604,100.0
1372,61.47445820433436,100.0
1373,56.42414860681114,100.0
1374,59.01702786377708,100.0
1375,60.966524767801864,100.0
1376,61.39705882352941,100.0
1377,61.329334365325074,100.0
1378,58.542956656346746,100.0
1379,60.17801857585139,100.0
1380,61.56153250773994,100.0
1381,59.670085139318886,100.0
1382,59.55398606811144,100.0
1383,59.24922600619195,100.0
1384,59.59268575851393,100.0
1385,56.279024767801864,100.0
1386,58.87674148606811,100.0
1387,62.54353715170278,100.0
1388,60.318304953560364,100.0
1389,58.29140866873064,100.0
1390,58.57198142414861,100.0
1391,61.547020123839005,100.0
1392,60.70046439628483,100.0
1393,57.93343653250775,100.0
1394,62.49516253869968,100.0
1395,60.9375,100.0
1396,59.079914860681114,100.0
1397,63.041795665634666,100.0
1398,60.642414860681114,100.0
1399,61.967879256965944,100.0
1400,63.70452786377708,100.0
1401,64.72039473684211,100.0
1402,56.927244582043336,100.0
1403,59.936145510835914,100.0
1404,57.21749226006192,100.0
1405,59.079914860681114,100.0
1406,63.86900154798764,100.0
1407,55.61629256965945,100.0
1408,54.18924148606811,100.0
1409,60.81172600619195,100.0
1410,59.254063467492266,100.0
1411,57.88506191950464,100.0
1412,57.870549535603715,100.0
1413,57.62383900928792,100.0
1414,59.80553405572756,100.0
1415,56.8546826625387,100.0
1416,60.16834365325077,100.0
1417,62.156540247678016,100.0
1418,62.06462848297215,100.0
1419,57.5125773993808,100.0
1420,57.85603715170278,100.0
1421,55.94523993808049,100.0
1422,64.35758513931889,100.0
1423,60.80205108359132,100.0
1424,57.41582817337461,100.0
1425,60.11029411764705,100.0
1426,59.53947368421052,100.0
1427,56.78695820433437,100.0
1428,57.79315015479876,100.0
1429,53.183049535603715,100.0
1430,61.49864551083592,100.0
1431,58.37848297213623,100.0
1432,59.57333591331269,100.0
1433,60.10061919504644,100.0
1434,60.371517027863774,100.0
1435,59.553986068111456,100.0
1436,54.65847523219814,100.0
1437,61.05843653250775,100.0
1438,61.547020123839005,100.0
1439,67.10042569659444,100.0
1440,61.49864551083592,100.0
1441,59.38951238390092,100.0
1442,62.587074303405565,100.0
1443,61.39705882352941,100.0
1444,59.84423374613003,100.0
1445,58.630030959752325,100.0
1446,56.44833591331269,100.0
1447,57.362616099071204,100.0
1448,60.545665634674926,100.0
1449,59.00735294117647,100.0
1450,60.70046439628484,100.0
1451,56.54508513931888,100.0
1452,60.289280185758514,100.0
1453,60.187693498452006,100.0
1454,62.14202786377708,100.0
1455,59.18633900928792,100.0
1456,62.89183436532509,100.0
1457,61.290634674922615,100.0
1458,59.16698916408669,100.0
1459,63.35623065015479,100.0
1460,60.79721362229103,100.0
1461,59.84907120743035,100.0
1462,59.75715944272446,100.0
1463,61.17937306501549,100.0
1464,60.50212848297213,100.0
1465,56.64667182662539,100.0
1466,59.20568885448916,100.0
1467,61.54702012383899,100.0
1468,58.64454334365325,100.0
1469,58.10274767801858,100.0
1470,55.92589009287925,100.0
1471,57.90924922600619,100.0
1472,59.75715944272446,100.0
1473,58.64938080495355,100.0
1474,61.97271671826625,100.0
1475,57.193304953560364,100.0
1476,59.578173374613,100.0
1477,59.10893962848297,100.0
1478,62.04044117647059,100.0
1479,56.506385448916404,100.0
1480,59.060565015479874,100.0
1481,59.6749226006192,100.0
1482,59.74748452012385,100.0
1483,57.91408668730651,100.0
1484,59.737809597523224,100.0
1485,62.25812693498451,100.0
1486,60.01354489164086,100.0
1487,60.119969040247675,100.0
1488,62.22910216718266,100.0
1489,58.354295665634666,100.0
1490,60.8891253869969,100.0
1491,59.021865325077385,100.0
1492,57.27070433436533,100.0
1493,59.40886222910216,100.0
1494,62.72252321981423,100.0
1495,60.88428792569659,100.0
1496,59.68943498452012,100.0
1497,58.47523219814241,100.0
1498,55.398606811145505,100.0
1499,60.57469040247679,100.0
1500,59.52979876160991,100.0
1501,60.08126934984519,100.0
1502,59.065402476780186,100.0
1503,63.84481424148606,100.0
1504,59.345975232198136,100.0
1505,58.04953560371517,100.0
1506,58.59133126934984,100.0
1507,59.907120743034056,100.0
1508,59.12828947368421,100.0
1509,62.35971362229102,100.0
1510,64.10603715170278,100.0
1511,60.16834365325077,100.0
1512,58.27689628482972,100.0
1513,61.72116873065015,100.0
1514,63.215944272445824,100.0
1515,55.77592879256966,100.0
1516,60.0812693498452,100.0
1517,63.215944272445824,100.0
1518,60.84075077399381,100.0
1519,62.437113003095966,100.0
1520,58.983165634674926,100.0
1521,55.921052631578945,100.0
1522,57.86571207430341,100.0
1523,57.45452786377709,100.0
1524,59.873258513931894,100.0
1525,61.919504643962846,100.0
1526,61.184210526315795,100.0
1527,63.83513931888545,100.0
1528,60.31346749226006,100.0
1529,62.36938854489164,100.0
1530,60.81172600619196,100.0
1531,58.93962848297214,100.0
1532,56.62732198142415,100.0
1533,57.386803405572756,100.0
1534,57.92376160990711,100.0
1535,56.01780185758514,100.0
1536,59.520123839009294,100.0
1537,62.795085139318886,100.0
1538,54.10216718266254,100.0
1539,54.847136222910216,100.0
1540,63.28366873065016,100.0
1541,52.921826625387,100.0
1542,56.71923374613003,100.0
1543,58.65905572755418,100.0
1544,58.896091331269346,100.0
1545,58.272058823529406,100.0
1546,57.51257739938082,100.0
1547,59.08958978328173,100.0
1548,58.12693498452012,100.0
1549,61.93885448916409,100.0
1550,55.059984520123834,100.0
1551,57.256191950464384,100.0
1552,57.23200464396285,100.0
1553,58.39299535603715,100.0
1554,61.03908668730651,100.0
1555,61.83243034055728,100.0
1556,56.143575851393194,100.0
1557,60.83107585139319,100.0
1558,57.31907894736841,100.0
1559,59.81037151702787,100.0
1560,62.66931114551083,100.0
1561,59.60236068111455,100.0
1562,61.42608359133128,100.0
1563,60.294117647058826,100.0
1564,63.20626934984518,100.0
1565,57.42066563467492,100.0
1566,59.786184210526315,100.0
1567,62.05979102167183,100.0
1568,64.69136996904024,100.0
1569,60.163506191950454,100.0
1570,59.147639318885446,100.0
1571,57.74477554179567,100.0
1572,57.95762383900929,100.0
1573,57.59965170278638,100.0
1574,58.60100619195046,100.0
1575,62.29198916408668,100.0
1576,57.028831269349844,100.0
1577,58.94446594427245,100.0
1578,58.422020123839,100.0
1579,58.900928792569665,100.0
1580,64.74941950464395,100.0
1581,61.4889705882353,100.0
1582,61.3390092879257,100.0
1583,61.86145510835913,100.0
1584,59.65073529411764,100.0
1585,56.97078173374613,100.0
1586,60.115131578947356,100.0
1587,56.55476006191951,100.0
1588,58.968653250774,100.0
1589,62.24361455108359,100.0
1590,59.94098297213621,100.0
1591,59.04121517027863,100.0
1592,65.00096749226006,100.0
1593,57.04334365325077,100.0
1594,55.732391640866865,100.0
1595,61.75503095975232,100.0
1596,61.09713622291022,100.0
1597,61.13099845201238,100.0
1598,60.27476780185757,100.0
1599,56.11455108359133,100.0
1600,59.57333591331269,100.0
1601,56.075851393188856,100.0
1602,59.476586687306494,100.0
1603,62.55321207430342,100.0
1604,60.0328947368421,100.0
1605,61.60506965944272,100.0
1606,58.43169504643964,100.0
1607,63.98510061919504,100.0
1608,58.36880804953561,100.0
1609,61.60023219814243,100.0
1610,61.808243034055735,100.0
1611,57.24651702786377,100.0
1612,63.96091331269349,100.0
1613,60.018382352941174,100.0
1614,62.538699690402474,100.0
1615,58.01567337461301,100.0
1616,57.909249226006196,100.0
1617,51.43672600619194,100.0
1618,63.17724458204334,100.0
1619,62.219427244582036,100.0
1620,60.16834365325078,100.0
1621,62.54353715170278,100.0
1622,62.63544891640866,100.0
1623,62.42743808049536,100.0
1624,58.56230650154799,100.0
1625,58.83804179566564,100.0
1626,58.925116099071204,100.0
1627,60.51664086687306,100.0
1628,57.062693498452006,100.0
1629,58.09791021671827,100.0
1630,61.9485294117647,100.0
1631,59.77650928792569,100.0
1632,59.36048761609907,100.0
1633,61.86629256965945,100.0
1634,59.684597523219814,100.0
1635,64.57527089783282,100.0
1636,57.212654798761605,100.0
1637,56.54024767801858,100.0
1638,63.67550309597523,100.0
1639,55.40828173374612,100.0
1640,57.31424148606811,100.0
1641,60.173181114551085,100.0
1642,60.44891640866872,100.0
1643,61.46478328173374,100.0
1644,58.509094427244584,100.0
1645,61.9436919504644,100.0
1646,55.316369969040245,100.0
1647,63.336880804953566,100.0
1648,61.3390092879257,100.0
1649,61.79856811145511,100.0
1650,61.039086687306494,100.0
1651,57.76896284829723,100.0
1652,62.050116099071204,100.0
1653,59.34597523219814,100.0
1654,55.96942724458204,100.0
1655,59.824883900928796,100.0
1656,61.37770897832817,100.0
1657,57.401315789473685,100.0
1658,60.013544891640876,100.0
1659,61.03908668730651,100.0
1660,60.3328173374613,100.0
1661,59.24438854489164,100.0
1662,59.56366099071207,100.0
1663,57.227167182662534,100.0
1664,60.545665634674926,100.0
1665,59.67976006191951,100.0
1666,57.69640092879257,100.0
1667,65.21381578947368,100.0
1668,59.9796826625387,100.0
1669,59.82004643962848,100.0
1670,59.05089009287925,100.0
1671,62.161377708978335,100.0
1672,60.95684984520125,100.0
1673,59.984520123839005,100.0
1674,60.71981424148606,100.0
1675,63.49167956656347,100.0
1676,61.41157120743034,100.0
1677,61.68730650154798,100.0
1678,55.78076625386996,100.0
1679,62.83862229102168,100.0
1680,58.63486842105264,100.0
1681,59.863583591331285,100.0
1682,59.38951238390093,100.0
1683,63.254643962848284,100.0
1684,62.03076625386996,100.0
1685,53.874806501547994,100.0
1686,56.254837461300305,100.0
1687,56.65634674922602,100.0
1688,60.8891253869969,100.0
1689,62.9015092879257,100.0
1690,60.50696594427245,100.0
1691,60.424729102167184,100.0
1692,63.22078173374613,100.0
1693,60.898800309597526,100.0
1694,57.48839009287926,100.0
1695,61.309984520123834,100.0
1696,61.60506965944272,100.0
1697,58.52360681114551,100.0
1698,62.12751547987615,100.0
1699,59.636222910216716,100.0
1700,63.99961300309598,100.0
1701,62.93053405572756,100.0
1702,61.02941176470587,100.0
1703,64.75425696594428,100.0
1704,60.192530959752325,100.0
1705,61.04876160990713,100.0
1706,63.43363003095974,100.0
1707,62.93537151702785,100.0
1708,69.0499226006192,100.0
1709,60.318304953560364,100.0
1710,60.245743034055735,100.0
1711,60.487616099071204,100.0
1712,58.7219427244582,100.0
1713,61.179373065015476,100.0
1714,59.45723684210526,100.0
1715,56.05166408668731,100.0
1716,61.092298761609904,100.0
1717,58.80417956656348,100.0
1718,56.18227554179567,100.0
1719,58.63003095975232,100.0
1720,57.59481424148607,100.0
1721,58.373645510835914,100.0
1722,56.72890866873065,100.0
1723,62.65963622291021,100.0
1724,59.75715944272446,100.0
1725,58.58649380804954,100.0
1726,60.36667956656347,100.0
1727,61.11164860681115,100.0
1728,58.126934984520126,100.0
1729,61.38254643962849,100.0
1730,59.6265479876161,100.0
1731,63.085332817337466,100.0
1732,59.665247678018574,100.0
1733,58.3155959752322,100.0
1734,61.305147058823515,100.0
1735,58.28173374613003,100.0
1736,64.89454334365325,100.0
1737,56.91756965944273,100.0
1738,62.3548761609907,100.0
1739,59.345975232198136,100.0
1740,62.81927244582043,100.0
1741,60.83107585139319,100.0
1742,62.1468653250774,100.0
1743,58.80417956656347,100.0
1744,58.60100619195047,100.0
1745,57.97213622291021,100.0
1746,60.579527863777095,100.0
1747,57.50773993808049,100.0
1748,59.75232198142415,100.0
1749,58.66389318885449,100.0
1750,59.849071207430335,100.0
1751,62.33068885448917,100.0
1752,59.263738390092875,100.0
1753,57.236842105263165,100.0
1754,57.74961300309598,100.0
1755,58.05921052631579,100.0
1756,63.336880804953566,100.0
1757,62.59674922600619,100.0
1758,60.95201238390093,100.0
1759,59.940982972136226,100.0
1760,59.60719814241486,100.0
1761,59.046052631578945,100.0
1762,60.695626934984524,100.0
1763,58.05437306501548,100.0
1764,57.023993808049525,100.0
1765,58.4703947368421,100.0
1766,57.62867647058823,100.0
1767,57.101393188854495,100.0
1768,60.390866873065015,100.0
1769,66.56830495356037,100.0
1770,58.881578947368425,100.0
1771,61.07778637770897,100.0
1772,56.93691950464397,100.0
1773,59.84423374613003,100.0
1774,58.813854489164086,100.0
1775,59.35081269349845,100.0
1776,56.84017027863778,100.0
1777,64.63332043343655,100.0
1778,62.37422600619195,100.0
1779,57.64318885448916,100.0
1780,60.80688854489164,100.0
1781,60.913312693498455,100.0
1782,62.68866099071207,100.0
1783,63.153057275541805,100.0
1784,61.53734520123838,100.0
1785,58.10758513931888,100.0
1786,58.107585139318886,100.0
1787,60.20704334365326,100.0
1788,60.342492260061924,100.0
1789,59.553986068111456,100.0
1790,55.35506965944271,100.0
1791,57.76896284829721,100.0
1792,54.23277863777089,100.0
1793,57.57546439628482,100.0
1794,62.58707430340558,100.0
1795,63.3997678018576,100.0
1796,54.7890866873065,100.0
1797,56.21613777089783,100.0
1798,56.5015479876161,100.0
1799,60.192530959752325,100.0
1800,60.01838235294117,100.0
1801,59.50077399380806,100.0
1802,60.07643188854489,100.0
1803,53.265286377708975,100.0
1804,57.23200464396285,100.0
1805,57.43034055727554,100.0
1806,60.76335139318885,100.0
1807,60.94717492260061,100.0
1808,59.76199690402478,100.0
1809,56.008126934984524,100.0
1810,62.91602167182663,100.0
1811,62.09365325077398,100.0
1812,57.21749226006192,100.0
1813,57.97697368421053,100.0
1814,59.52012383900929,100.0
1815,59.83455882352941,100.0
1816,60.50212848297215,100.0
1817,60.947174922600624,100.0
1818,59.007352941176464,100.0
1819,59.940982972136226,100.0
1820,58.22368421052632,100.0
1821,63.767414860681114,100.0
1822,57.87538699690403,100.0
1823,58.31075851393189,100.0
1824,59.786184210526315,100.0
1825,59.8297213622291,100.0
1826,58.51393188854489,100.0
1827,60.63757739938081,100.0
1828,62.63061145510837,100.0
1829,61.832430340557266,100.0
1830,60.77786377708978,100.0
1831,60.066756965944265,100.0
1832,61.35835913312694,100.0
1833,59.099264705882355,100.0
1834,59.907120743034056,100.0
1835,59.14763931888544,100.0
1836,57.54160216718266,100.0
1837,61.247097523219814,100.0
1838,58.13660990712075,100.0
1839,60.023219814241486,100.0
1840,57.75445046439628,100.0
1841,61.261609907120764,100.0
1842,64.72523219814241,100.0
1843,64.04315015479875,100.0
1844,59.17666408668731,100.0
1845,59.52979876160991,100.0
1846,58.136609907120736,100.0
1847,64.62848297213621,100.0
1848,63.704527863777095,100.0
1849,60.16834365325077,100.0
1850,54.919698142414866,100.0
1851,59.534636222910216,100.0
1852,57.89957430340558,100.0
1853,59.597523219814235,100.0
1854,61.38738390092879,100.0
1855,65.85719814241486,100.0
1856,60.94233746130032,100.0
1857,60.77786377708978,100.0
1858,58.99284055727554,100.0
1859,62.78057275541795,100.0
1860,62.50483746130029,100.0
1861,56.748258513931894,100.0
1862,60.52147832817337,100.0
1863,62.94504643962848,100.0
1864,63.0514705882353,100.0
1865,62.490325077399376,100.0
1866,62.39357585139319,100.0
1867,63.2546439628483,100.0
1868,57.95762383900928,100.0
1869,62.14202786377708,100.0
1870,57.7641253869969,100.0
1871,58.359133126934985,100.0
1872,62.558049535603715,100.0
1873,59.46691176470588,100.0
1874,63.719040247678016,100.0
1875,62.81443498452012,100.0
1876,53.87964396284829,100.0
1877,60.24574303405572,100.0
1878,63.00309597523219,100.0
1879,58.55263157894737,100.0
1880,63.92705108359134,100.0
1881,64.20278637770899,100.0
1882,59.679760061919495,100.0
1883,61.71633126934984,100.0
1884,61.0874613003096,100.0
1885,60.308630030959755,100.0
1886,61.04392414860681,100.0
1887,61.0874613003096,100.0
1888,54.039280185758514,100.0
1889,58.678405572755416,100.0
1890,62.41776315789473,100.0
1891,61.987229102167184,100.0
1892,59.45723684210526,100.0
1893,61.21323529411763,100.0
1894,62.24845201238391,100.0
1895,62.33068885448915,100.0
1896,63.931888544891656,100.0
1897,63.8641640866873,100.0
1898,56.02747678018575,100.0
1899,58.93479102167183,100.0
1900,64.07701238390094,100.0
1901,61.56153250773994,100.0
1902,60.41021671826626,100.0
1903,52.380030959752325,100.0
1904,59.42821207430342,100.0
1905,59.060565015479874,100.0
1906,56.056501547987615,100.0
1907,60.19253095975233,100.0
1908,59.882933436532504,100.0
1909,60.240905572755416,100.0
1910,57.80282507739938,100.0
1911,60.99554953560373,100.0
1912,58.91544117647058,100.0
1913,56.71439628482972,100.0
1914,57.638351393188856,100.0
1915,63.148219814241486,100.0
1916,57.754450464396285,100.0
1917,59.84907120743033,100.0
1918,60.07159442724459,100.0
1919,54.03928018575851,100.0
1920,59.907120743034056,100.0
1921,55.08417182662539,100.0
1922,55.17608359133128,100.0
1923,58.87190402476781,100.0
1924,62.94988390092879,100.0
1925,60.04256965944272,100.0
1926,61.31965944272446,100.0
1927,59.91195820433437,100.0
1928,58.644543343653254,100.0
1929,60.60371517027864,100.0
1930,55.66466718266253,100.0
1931,62.949883900928775,100.0
1932,60.10545665634675,100.0
1933,59.350812693498455,100.0
1934,54.97291021671827,100.0
1935,61.77921826625387,100.0
1936,61.919504643962846,100.0
1937,60.66176470588237,100.0
1938,59.47174922600619,100.0
1939,60.71981424148606,100.0
1940,61.54702012383902,100.0
1941,56.93691950464397,100.0
1942,61.638931888544874,100.0
1943,58.70743034055727,100.0
1944,58.223684210526315,100.0
1945,61.06327399380805,100.0
1946,57.91408668730651,100.0
1947,57.45452786377709,100.0
1948,56.90305727554179,100.0
1949,60.68111455108359,100.0
1950,62.88699690402477,100.0
1951,59.41369969040248,100.0
1952,63.56424148606811,100.0
1953,57.54160216718267,100.0
1954,60.947174922600624,100.0
1955,57.81733746130031,100.0
1956,60.44407894736842,100.0
1957,61.28095975232197,100.0
1958,58.04953560371517,100.0
1959,56.81114551083591,100.0
1960,60.54082817337461,100.0
1961,59.64589783281734,100.0
1962,60.71013931888544,100.0
1963,60.60855263157893,100.0
1964,58.20917182662539,100.0
1965,58.126934984520126,100.0
1966,63.06114551083591,100.0
1967,59.0218653250774,100.0
1968,57.70123839009289,100.0
1969,61.26644736842107,100.0
1970,57.541602167182674,100.0
1971,57.21749226006192,100.0
1972,57.47871517027863,100.0
1973,60.453753869969034,100.0
1974,61.59055727554179,100.0
1975,57.99632352941177,100.0
1976,63.26431888544891,100.0
1977,61.83243034055728,100.0
1978,61.01973684210527,100.0
1979,65.30089009287926,100.0
1980,59.32178792569659,100.0
1981,62.3016640866873,100.0
1982,60.274767801857585,100.0
1983,56.48703560371518,100.0
1984,58.62519349845201,100.0
1985,58.48974458204334,100.0
1986,60.47310371517028,100.0
1987,58.8719040247678,100.0
1988,66.8875773993808,100.0
1989,60.16834365325077,100.0
1990,58.12209752321981,100.0
1991,63.414280185758514,100.0
1992,58.49941950464396,100.0
1993,59.07991486068112,100.0
1994,59.98935758513932,100.0
1995,60.49729102167183,100.0
1996,62.64028637770897,100.0
1997,59.45239938080495,100.0
1998,60.30379256965945,100.0
1999,60.226393188854495,100.0
2000,58.233359133126946,100.0
2001,64.48819659442724,100.0
2002,60.42956656346749,100.0
2003,57.18363003095975,100.0
2004,59.31211300309597,100.0
2005,60.7875386996904,100.0
2006,60.94717492260061,100.0
2007,58.72194272445821,100.0
2008,60.49245356037152,100.0
2009,58.567143962848306,100.0
2010,62.34520123839008,100.0
2011,61.30998452012385,100.0
2012,56.782120743034056,100.0
2013,60.090944272445824,100.0
2014,60.37635448916409,100.0
2015,58.073722910216716,100.0
2016,61.580882352941174,100.0
2017,60.66660216718266,100.0
2018,60.62306501547988,100.0
2019,58.15595975232198,100.0
2020,55.70336687306501,100.0
2021,56.27418730650155,100.0
2022,57.65286377708978,100.0
2023,60.19253095975232,100.0
2024,58.233359133126946,100.0
2025,59.302438080495364,100.0
2026,58.81869195046439,100.0
2027,57.63835139318885,100.0
2028,59.694272445820445,100.0
2029,57.55611455108359,100.0
2030,58.65421826625387,100.0
2031,58.55263157894736,100.0
2032,67.8937693498452,100.0
2033,61.04876160990712,100.0
2034,64.98645510835914,100.0
2035,57.715750773993804,100.0
2036,59.67008513931889,100.0
2037,57.48839009287926,100.0
2038,56.94175696594428,100.0
2039,63.157894736842096,100.0
2040,60.071594427244584,100.0
2041,60.59887770897832,100.0
2042,56.3515866873065,100.0
2043,63.37074303405572,100.0
2044,63.39493034055728,100.0
2045,60.14899380804953,100.0
2046,59.07507739938081,100.0
2047,62.7950851393189,100.0
2048,57.79798761609908,100.0
2049,58.310758513931894,100.0
2050,56.59345975232198,100.0
2051,59.82004643962848,100.0
2052,61.653444272445824,100.0
2053,58.78482972136223,100.0
2054,63.559404024767794,100.0
2055,59.11861455108359,100.0
2056,58.73645510835914,100.0
2057,59.56366099071207,100.0
2058,58.59133126934984,100.0
2059,58.84287925696596,100.0
2060,57.42550309597523,100.0
2061,62.56772445820434,100.0
2062,61.1358359133127,100.0
2063,60.66660216718266,100.0
2064,62.142027863777095,100.0
2065,52.3703560371517,100.0
2066,60.49729102167183,100.0
2067,56.24032507739938,100.0
2068,59.31695046439628,100.0
2069,58.61551857585139,100.0
2070,61.31965944272446,100.0
2071,60.202205882352935,100.0
2072,60.95201238390093,100.0
2073,58.89125386996904,100.0
2074,61.57120743034055,100.0
2075,62.63061145510836,100.0
2076,57.788312693498455,100.0
2077,59.8297213622291,100.0
2078,59.72329721362229,100.0
2079,64.6623452012384,100.0
2080,60.72465170278639,100.0
2081,62.45646284829722,100.0
2082,60.158668730650156,100.0
2083,61.22774767801858,100.0
2084,63.36106811145511,100.0
2085,55.13254643962847,100.0
2086,59.50561145510836,100.0
2087,61.76954334365325,100.0
2088,62.63544891640868,100.0
2089,59.38951238390092,100.0
2090,58.13177244582044,100.0
2091,58.77515479876161,100.0
2092,61.79373065015479,100.0
2093,59.78134674922601,100.0
2094,58.591331269349844,100.0
2095,64.95743034055727,100.0
2096,63.041795665634666,100.0
2097,63.28366873065016,100.0
2098,55.55340557275542,100.0
2099,59.32178792569659,100.0
2100,59.41369969040247,100.0
2101,61.01973684210527,100.0
2102,58.68808049535605,100.0
2103,59.21052631578948,100.0
2104,58.891253869969034,100.0
2105,57.725425696594435,100.0
2106,52.73800309597522,100.0
2107,58.663893188854495,100.0
2108,59.12345201238389,100.0
2109,62.24361455108359,100.0
2110,62.94020897832816,100.0
2111,58.789667182662534,100.0
2112,57.130417956656345,100.0
2113,59.34113777089783,100.0
2114,60.85526315789474,100.0
2115,62.761222910216716,100.0
2116,57.24651702786378,100.0
2117,60.705301857585134,100.0
2118,59.10410216718266,100.0
2119,57.498065015479874,100.0
2120,58.69775541795666,100.0
2121,59.48142414860681,100.0
2122,60.56985294117647,100.0
2123,63.98026315789474,100.0
2124,57.715750773993804,100.0
2125,61.16002321981424,100.0
2126,60.656927244582036,100.0
2127,53.6813080495356,100.0
2128,59.50077399380805,100.0
2129,58.576818885448915,100.0
2130,59.97000773993808,100.0
2131,59.54431114551083,100.0
2132,60.61339009287925,100.0
2133,63.477167182662534,100.0
2134,60.29895510835913,100.0
2135,61.87596749226006,100.0
2136,62.54353715170278,100.0
2137,56.6515092879257,100.0
2138,58.31075851393189,100.0
2139,56.57410990712074,100.0
2140,54.1311919504644,100.0
2141,60.98587461300309,100.0
2142,60.74883900928793,100.0
2143,64.04798761609908,100.0
2144,57.42550309597523,100.0
2145,57.93827399380805,100.0
2146,54.66331269349845,100.0
2147,57.454527863777095,100.0
2148,59.75715944272446,100.0
2149,57.004643962848306,100.0
2150,58.08339783281733,100.0
2151,62.369388544891656,100.0
2152,55.38893188854489,100.0
2153,56.84500773993809,100.0
2154,61.55669504643962,100.0
2155,60.87461300309598,100.0
2156,56.51606037151703,100.0
2157,61.440595975232206,100.0
2158,63.84965170278636,100.0
2159,59.57333591331269,100.0
2160,60.65692724458205,100.0
2161,61.73084365325079,100.0
2162,55.674342105263165,100.0
2163,61.05359907120743,100.0
2164,61.26160990712075,100.0
2165,58.67356811145511,100.0
2166,60.81172600619196,100.0
2167,60.734326625386984,100.0
2168,60.10061919504644,100.0
2169,64.34791021671826,100.0
2170,61.75503095975232,100.0
2171,59.08958978328173,100.0
2172,57.643188854489175,100.0
2173,61.280959752322,100.0
2174,58.19949690402478,100.0
2175,63.66582817337459,100.0
2176,62.862809597523224,100.0
2177,57.45452786377709,100.0
2178,59.91195820433437,100.0
2179,62.8531346749226,100.0
2180,59.742647058823515,100.0
2181,59.11861455108358,100.0
2182,58.74129256965945,100.0
2183,57.338428792569665,100.0
2184,65.76044891640866,100.0
2185,64.30921052631577,100.0
2186,57.25135448916409,100.0
2187,63.54005417956655,100.0
2188,58.83804179566563,100.0
2189,64.85584365325076,100.0
2190,62.296826625387,100.0
2191,58.949303405572756,100.0
2192,68.72097523219816,100.0
2193,62.983746130030966,100.0
2194,63.49167956656347,100.0
2195,59.215363777089784,100.0
2196,63.878676470588225,100.0
2197,60.381191950464384,100.0
2198,57.328753869969034,100.0
2199,57.0046439628483,100.0
2200,62.70801083591329,100.0
2201,58.039860681114554,100.0
2202,58.25270897832817,100.0
2203,56.47252321981425,100.0
2204,58.07856037151702,100.0
2205,58.81869195046439,100.0
2206,60.64241486068113,100.0
2207,56.99980650154799,100.0
2208,59.046052631578945,100.0
2209,60.874613003095966,100.0
2210,57.483552631578945,100.0
2211,60.898800309597526,100.0
2212,60.729489164086694,100.0
2213,58.22852167182663,100.0
2214,57.589976780185765,100.0
2215,64.79295665634675,100.0
2216,60.289280185758514,100.0
2217,59.471749226006196,100.0
2218,65.6153250773994,100.0
2219,63.32720588235294,100.0
2220,60.47310371517027,100.0
2221,66.70859133126936,100.0
2222,60.89396284829721,100.0
2223,60.09578173374613,100.0
2224,59.152476780185765,100.0
2225,59.70878482972137,100.0
2226,65.10739164086688,100.0
2227,55.72755417956656,100.0
2228,59.05572755417957,100.0
2229,64.24148606811146,100.0
2230,61.929179566563455,100.0
2231,59.14280185758514,100.0
2232,60.68111455108359,100.0
2233,61.71633126934984,100.0
2234,57.11590557275542,100.0
2235,57.14493034055728,100.0
2236,66.00715944272446,100.0
2237,61.05359907120743,100.0
2238,59.47174922600619,100.0
2239,65.21865325077398,100.0
2240,57.73510061919504,100.0
2241,62.41776315789474,100.0
2242,56.20162538699691,100.0
2243,68.41621517027863,100.0
2244,60.72948916408668,100.0
2245,61.70665634674923,100.0
2246,62.31133900928793,100.0
2247,65.7797987616099,100.0
2248,58.74613003095976,100.0
2249,61.411571207430356,100.0
2250,58.38332043343652,100.0
2251,56.97078173374613,100.0
2252,62.61609907120744,100.0
2253,57.957623839009294,100.0
2254,61.687306501547994,100.0
2255,64.85584365325079,100.0
2256,56.728908668730654,100.0
2257,61.2906346749226,100.0
2258,62.906346749226,100.0
2259,61.000386996904034,100.0
2260,60.357004643962846,100.0
2261,64.03347523219814,100.0
2262,60.67627708978327,100.0
2263,56.24516253869968,100.0
2264,56.757933436532504,100.0
2265,58.233359133126946,100.0
2266,59.336300309597526,100.0
2267,63.33688080495355,100.0
2268,54.39725232198141,100.0
2269,56.82565789473684,100.0
2270,57.24167956656348,100.0
2271,57.59965170278638,100.0
2272,60.3328173374613,100.0
2273,56.18227554179566,100.0
2274,58.99767801857585,100.0
2275,60.58920278637771,100.0
2276,61.84210526315789,100.0
2277,66.52476780185759,100.0
2278,59.297600619195045,100.0
2279,60.487616099071204,100.0
2280,59.079914860681114,100.0
2281,60.942337461300305,100.0
2282,57.6625386996904,100.0
2283,58.591331269349844,100.0
2284,58.74129256965944,100.0
2285,60.40054179566564,100.0
2286,64.13022445820432,100.0
2287,59.703947368421055,100.0
2288,56.84500773993808,100.0
2289,60.22155572755418,100.0
2290,63.738390092879264,100.0
2291,58.68808049535603,100.0
2292,58.24303405572755,100.0
2293,60.187693498452006,100.0
2294,58.68324303405572,100.0
2295,61.11164860681114,100.0
2296,62.05495356037152,100.0
2297,58.51393188854488,100.0
2298,59.04605263157895,100.0
2299,58.528444272445824,100.0
2300,58.85739164086687,100.0
2301,59.76199690402477,100.0
2302,58.925116099071204,100.0
2303,56.980456656346746,100.0
2304,62.190402476780186,100.0
2305,60.182856037151694,100.0
2306,64.6139705882353,100.0
2307,60.835913312693506,100.0
2308,57.81733746130032,100.0
2309,61.76470588235294,100.0
2310,63.743227554179555,100.0
2311,60.86493808049537,100.0
2312,59.28308823529411,100.0
2313,60.23606811145511,100.0
2314,60.932662538699695,100.0
2315,60.598877708978335,100.0
2316,58.6155185758514,100.0
2317,59.99419504643963,100.0
2318,57.164280185758514,100.0
2319,59.09442724458205,100.0
2320,63.225619195046434,100.0
2321,57.4109907120743,100.0
2322,62.60642414860681,100.0
2323,61.5421826625387,100.0
2324,56.92240712074303,100.0
2325,59.69910990712074,100.0
2326,59.873258513931894,100.0
2327,60.11029411764706,100.0
2328,62.02109133126934,100.0
2329,57.72542569659443,100.0
2330,64.82198142414862,100.0
2331,61.73084365325076,100.0
2332,62.3887383900929,100.0
2333,61.04876160990713,100.0
2334,63.98993808049536,100.0
2335,60.66660216718266,100.0
2336,60.265092879256976,100.0
2337,61.61474458204333,100.0
2338,56.975619195046434,100.0
2339,64.45917182662538,100.0
2340,60.51664086687306,100.0
2341,61.967879256965944,100.0
2342,59.79102167182663,100.0
2343,57.52708978328173,100.0
2344,59.670085139318886,100.0
2345,58.02534829721362,100.0
2346,59.955495356037154,100.0
2347,60.61339009287925,100.0
2348,60.49729102167183,100.0
2349,65.64434984520123,100.0
2350,60.92782507739939,100.0
2351,60.057082043343655,100.0
2352,64.78811919504643,100.0
2353,60.82140092879257,100.0
2354,58.77515479876161,100.0
2355,61.10197368421053,100.0
2356,59.18150154798761,100.0
2357,59.98935758513932,100.0
2358,59.00735294117647,100.0
2359,61.42608359133126,100.0
2360,62.267801857585134,100.0
2361,59.06056501547988,100.0
2362,61.3390092879257,100.0
2363,60.40054179566564,100.0
2364,54.576238390092875,100.0
2365,63.99961300309598,100.0
2366,59.316950464396285,100.0
2367,61.75503095975233,100.0
2368,57.904411764705884,100.0
2369,59.820046439628484,100.0
2370,61.827592879256976,100.0
2371,60.36667956656347,100.0
2372,60.608552631578945,100.0
2373,60.34249226006191,100.0
2374,63.404605263157876,100.0
2375,61.256772445820445,100.0
2376,64.67685758513932,100.0
2377,58.76064241486068,100.0
2378,58.538119195046434,100.0
2379,60.3328173374613,100.0
2380,55.48084365325078,100.0
2381,58.296246130030966,100.0
2382,63.34171826625386,100.0
2383,60.642414860681114,100.0
2384,63.496517027863774,100.0
2385,60.565015479876166,100.0
2386,63.743227554179555,100.0
2387,62.146865325077385,100.0
2388,58.96381578947369,100.0
2389,60.695626934984524,100.0
2390,56.08552631578948,100.0
2391,59.24438854489164,100.0
2392,61.324496904024755,100.0
2393,57.35294117647059,100.0
2394,56.97561919504644,100.0
2395,61.4454334365325,100.0
2396,57.2610294117647,100.0
2397,58.862229102167184,100.0
2398,60.845588235294116,100.0
2399,62.253289473684205,100.0
2400,59.58301083591332,100.0
2401,63.235294117647044,100.0
2402,63.64647832817338,100.0
2403,63.52070433436532,100.0
2404,59.76683436532508,100.0
2405,56.356424148606806,100.0
2406,58.867066563467496,100.0
2407,61.01489938080495,100.0
2408,58.847716718266255,100.0
2409,61.71633126934984,100.0
2410,58.073722910216716,100.0
2411,60.50696594427244,100.0
2412,56.37577399380805,100.0
2413,57.251354489164086,100.0
2414,60.50696594427245,100.0
2415,60.58920278637771,100.0
2416,61.75986842105264,100.0
2417,62.55804953560373,100.0
2418,57.17395510835914,100.0
2419,59.41369969040247,100.0
2420,59.43788699690403,100.0
2421,60.361842105263165,100.0
2422,59.94582043343654,100.0
2423,56.29837461300309,100.0
2424,58.87674148606811,100.0
2425,56.56927244582044,100.0
2426,61.10681114551083,100.0
2427,58.078560371517035,100.0
2428,59.79585913312694,100.0
2429,57.83668730650155,100.0
2430,59.336300309597526,100.0
2431,57.79315015479875,100.0
2432,59.10410216718267,100.0
2433,60.76335139318885,100.0
2434,61.6969814241486,100.0
2435,62.766060371517035,100.0
2436,58.60100619195047,100.0
2437,55.75657894736841,100.0
2438,63.433630030959755,100.0
2439,58.44136996904025,100.0
2440,61.00038699690402,100.0
2441,57.914086687306494,100.0
2442,62.81927244582043,100.0
2443,59.49109907120743,100.0
2444,59.58301083591332,100.0
2445,63.50135448916411,100.0
2446,55.63080495356037,100.0
2447,63.47716718266255,100.0
2448,58.28173374613003,100.0
2449,59.25406346749226,100.0
2450,58.58649380804953,100.0
2451,62.11784055727554,100.0
2452,60.20220588235294,100.0
2453,58.770317337461286,100.0
2454,54.99709752321981,100.0
2455,60.274767801857585,100.0
2456,63.61745356037152,100.0
2457,55.954914860681114,100.0
2458,60.54082817337461,100.0
2459,62.78541021671825,100.0
2460,57.99148606811145,100.0
2461,53.903831269349844,100.0
2462,57.29005417956656,100.0
2463,58.78482972136222,100.0
2464,57.91408668730651,100.0
2465,60.0280572755418,100.0
2466,56.636996904024755,100.0
2467,63.162732198142415,100.0
2468,59.786184210526315,100.0
2469,64.62848297213623,100.0
2470,57.12074303405572,100.0
2471,57.80282507739939,100.0
2472,63.28850619195047,100.0
2473,60.45859133126934,100.0
2474,58.92511609907121,100.0
2475,61.80824303405572,100.0
2476,60.69078947368422,100.0
2477,61.70181888544892,100.0
2478,60.574690402476776,100.0
2479,60.68595201238389,100.0
2480,57.55611455108359,100.0
2481,63.167569659442705,100.0
2482,61.0826238390093,100.0
2483,56.00328947368421,100.0
2484,60.91815015479876,100.0
2485,61.213235294117645,100.0
2486,59.97484520123839,100.0
2487,60.49245356037152,100.0
2488,62.470975232198136,100.0
2489,60.89396284829722,100.0
2490,62.64512383900927,100.0
2491,60.55534055727554,100.0
2492,60.00870743034055,100.0
2493,62.17105263157893,100.0
2494,61.38738390092879,100.0
2495,59.48142414860681,100.0
2496,58.262383900928796,100.0
2497,59.83455882352941,100.0
2498,57.34326625386997,100.0
2499,63.254643962848284,100.0
2500,56.965944272445824,100.0
2501,56.66602167182663,100.0
2502,57.29005417956656,100.0
2503,59.82488390092879,100.0
2504,59.926470588235304,100.0
2505,57.13525541795666,100.0
2506,58.204334365325074,100.0
2507,59.433049535603715,100.0
2508,58.90092879256966,100.0
2509,56.63215944272446,100.0
2510,59.660410216718276,100.0
2511,62.016253869969034,100.0
2512,61.01006191950463,100.0
2513,60.18769349845201,100.0
2514,60.86010061919505,100.0
2515,61.37287151702787,100.0
2516,56.47252321981424,100.0
2517,59.0218653250774,100.0
2518,60.72465170278639,100.0
2519,59.69910990712075,100.0
2520,56.9562693498452,100.0
2521,59.06540247678018,100.0
2522,61.256772445820445,100.0
2523,60.932662538699695,100.0
2524,60.318304953560364,100.0
2525,62.708010835913306,100.0
2526,58.24787151702787,100.0
2527,59.59752321981424,100.0
2528,63.62712848297215,100.0
2529,58.55263157894737,100.0
2530,59.05089009287926,100.0
2531,60.453753869969034,100.0
2532,57.50290247678019,100.0
2533,59.29276315789474,100.0
2534,59.316950464396285,100.0
2535,60.64725232198142,100.0
2536,59.500773993808046,100.0
2537,62.9015092879257,100.0
2538,59.60719814241486,100.0
2539,58.57681888544891,100.0
2540,59.38951238390093,100.0
2541,59.53947368421053,100.0
2542,58.10274767801858,100.0
2543,59.68459752321981,100.0
2544,61.19388544891641,100.0
2545,61.71149380804953,100.0
2546,59.399187306501545,100.0
2547,56.970781733746136,100.0
2548,59.336300309597526,100.0
2549,61.34868421052632,100.0
2550,58.649380804953545,100.0
2551,61.73568111455108,100.0
2552,64.32856037151703,100.0
2553,62.66931114551083,100.0
2554,58.8719040247678,100.0
2555,58.65421826625387,100.0
2556,57.62383900928793,100.0
2557,61.99690402476781,100.0
2558,65.12190402476779,100.0
2559,58.12693498452012,100.0
2560,56.45317337461301,100.0
2561,60.47310371517028,100.0
2562,60.43440402476781,100.0
2563,62.86764705882353,100.0
2564,59.62654798761609,100.0
2565,63.55456656346749,100.0
2566,57.633513931888544,100.0
2567,56.075851393188856,100.0
2568,61.79373065015479,100.0
2569,59.93130804953561,100.0
2570,59.921633126934985,100.0
2571,62.214589783281724,100.0
2572,57.53192724458205,100.0
2573,60.676277089783284,100.0
2574,57.62867647058824,100.0
2575,62.11784055727555,100.0
2576,61.24226006191951,100.0
2577,60.07159442724459,100.0
2578,60.0328947368421,100.0
2579,59.36048761609907,100.0
2580,60.598877708978335,100.0
2581,57.459365325077385,100.0
2582,58.131772445820424,100.0
2583,58.46071981424149,100.0
2584,64.13989938080493,100.0
2585,60.9858746130031,100.0
2586,56.3999613003096,100.0
2587,62.233939628482965,100.0
2588,58.083397832817326,100.0
2589,61.32449690402477,100.0
2590,60.642414860681114,100.0
2591,60.48277863777089,100.0
2592,59.99903250773994,100.0
2593,62.267801857585134,100.0
2594,62.722523219814256,100.0
2595,59.113777089783284,100.0
2596,62.093653250774,100.0
2597,57.923761609907125,100.0
2598,56.588622291021665,100.0
2599,59.297600619195045,100.0
2600,62.27747678018576,100.0
2601,59.094427244582036,100.0
2602,58.12693498452012,100.0
2603,57.44001547987616,100.0
2604,60.284442724458195,100.0
2605,60.3860294117647,100.0
2606,64.73974458204336,100.0
2607,59.46207430340557,100.0
2608,58.789667182662534,100.0
2609,62.838622291021665,100.0
2610,61.3390092879257,100.0
2611,59.28792569659443,100.0
2612,59.40886222910216,100.0
2613,63.196594427244584,100.0
2614,63.61745356037153,100.0
2615,60.124806501547994,100.0
2616,61.750193498452006,100.0
2617,57.37712848297214,100.0
2618,61.57604489164087,100.0
2619,56.18711300309597,100.0
2620,61.80824303405572,100.0
2621,62.03076625386998,100.0
2622,59.166989164086694,100.0
2623,63.34171826625387,100.0
2624,59.965170278637764,100.0
2625,60.323142414860676,100.0
2626,59.73780959752322,100.0
2627,62.15170278637771,100.0
2628,62.87248452012385,100.0
2629,59.06056501547988,100.0
2630,56.16776315789475,100.0
2631,59.6845975232198,100.0
2632,61.522832817337466,100.0
2633,59.534636222910216,100.0
2634,58.43653250773994,100.0
2635,65.81849845201236,100.0
2636,62.62093653250775,100.0
2637,58.63970588235294,100.0
2638,60.01838235294117,100.0
2639,55.87751547987616,100.0
2640,59.01702786377708,100.0
2641,59.12828947368422,100.0
2642,60.24574303405572,100.0
2643,61.808243034055735,100.0
2644,58.44620743034055,100.0
2645,62.10332817337462,100.0
2646,56.21613777089783,100.0
2647,62.36938854489164,100.0
2648,61.450270897832816,100.0
2649,58.53811919504644,100.0
2650,61.98239164086687,100.0
2651,53.45878482972137,100.0
2652,59.297600619195045,100.0
2653,60.10061919504645,100.0
2654,58.03502321981424,100.0
2655,62.42260061919504,100.0
2656,58.9202786377709,100.0
2657,58.05437306501548,100.0
2658,63.49651702786379,100.0
2659,61.90982972136223,100.0
2660,61.29547213622292,100.0
2661,55.432469040247675,100.0
2662,61.1358359133127,100.0
2663,59.87325851393188,100.0
2664,60.89396284829722,100.0
2665,59.55398606811145,100.0
2666,60.29411764705881,100.0
2667,55.76141640866872,100.0
2668,62.16621517027864,100.0
2669,67.49226006191952,100.0
2670,60.36667956656347,100.0
2671,59.38467492260061,100.0
2672,57.62867647058823,100.0
2673,57.18846749226005,100.0
2674,63.92221362229103,100.0
2675,59.43304953560372,100.0
2676,63.49167956656347,100.0
2677,56.18711300309598,100.0
2678,62.17589009287925,100.0
2679,61.232585139318886,100.0
2680,57.43517801857585,100.0
2681,59.03637770897833,100.0
2682,60.632739938080505,100.0
2683,61.866292569659436,100.0
2684,61.37287151702787,100.0
2685,59.220201238390096,100.0
2686,62.13235294117646,100.0
2687,59.47174922600618,100.0
2688,61.08262383900929,100.0
2689,59.0750773993808,100.0
2690,60.52631578947369,100.0
2691,58.039860681114554,100.0
2692,61.10197368421053,100.0
2693,55.74206656346749,100.0
2694,60.55050309597523,100.0
2695,63.17724458204334,100.0
2696,59.2734133126935,100.0
2697,61.34868421052632,100.0
2698,62.5580495356037,100.0
2699,60.1344814241486,100.0
2700,62.25812693498451,100.0
2701,64.29469814241486,100.0
2702,61.32449690402477,100.0
2703,62.86764705882353,100.0
2704,61.663119195046434,100.0
2705,62.19523993808049,100.0
2706,57.92376160990712,100.0
2707,61.73568111455109,100.0
2708,61.580882352941174,100.0
2709,59.070239938080505,100.0
2710,57.725425696594414,100.0
2711,60.87461300309598,100.0
2712,56.65150928792569,100.0
2713,61.363196594427244,100.0
2714,63.00309597523219,100.0
2715,55.47116873065016,100.0
2716,59.94582043343653,100.0
2717,62.99342105263158,100.0
2718,54.0828173374613,100.0
2719,61.7888931888545,100.0
2720,63.225619195046434,100.0
2721,59.723297213622295,100.0
2722,60.41505417956657,100.0
2723,60.874613003095966,100.0
2724,55.587267801857585,100.0
2725,62.55804953560373,100.0
2726,56.62732198142415,100.0
2727,63.196594427244584,100.0
2728,56.41447368421053,100.0
2729,54.18440402476781,100.0
2730,61.43092105263158,100.0
2731,57.420665634674926,100.0
2732,58.775154798761605,100.0
2733,59.670085139318886,100.0
2734,59.2734133126935,100.0
2735,62.03560371517028,100.0
2736,61.09229876160992,100.0
2737,65.37345201238388,100.0
2738,57.609326625386984,100.0
2739,60.090944272445824,100.0
2740,59.0750773993808,100.0
2741,55.92105263157895,100.0
2742,63.40944272445819,100.0
2743,64.03831269349844,100.0
2744,60.086106811145505,100.0
2745,60.0812693498452,100.0
2746,63.336880804953566,100.0
2747,61.70181888544891,100.0
2748,59.46207430340557,100.0
2749,62.156540247678016,100.0
2750,59.549148606811144,100.0
2751,61.67279411764706,100.0
2752,58.160797213622295,100.0
2753,52.38486842105264,100.0
2754,57.202979876161,100.0
2755,58.24787151702786,100.0
2756,62.045278637770906,100.0
2757,57.536764705882355,100.0
2758,57.76412538699691,100.0
2759,63.81095201238389,100.0
2760,62.05979102167183,100.0
2761,59.42821207430341,100.0
2762,58.494582043343655,100.0
2763,62.886996904024784,100.0
2764,55.596942724458195,100.0
2765,55.717879256965944,100.0
2766,56.52573529411764,100.0
2767,56.01296439628484,100.0
2768,56.143575851393194,100.0
2769,60.44891640866874,100.0
2770,69.38854489164086,100.0
2771,61.261609907120736,100.0
2772,56.085526315789465,100.0
2773,58.9202786377709,100.0
2774,61.12132352941177,100.0
2775,59.28308823529411,100.0
2776,56.66602167182663,100.0
2777,59.09442724458204,100.0
2778,59.181501547987615,100.0
2779,59.6797600619195,100.0
2780,57.39647832817337,100.0
2781,58.02051083591331,100.0
2782,59.70394736842105,100.0
2783,61.392221362229094,100.0
2784,61.232585139318886,100.0
2785,59.515286377708975,100.0
2786,61.76470588235294,100.0
2787,60.424729102167184,100.0
2788,56.29353715170278,100.0
2789,59.418537151702786,100.0
2790,62.35487616099071,100.0
2791,61.309984520123834,100.0
2792,61.68246904024768,100.0
2793,58.41234520123839,100.0
2794,59.24438854489164,100.0
2795,60.90363777089783,100.0
2796,61.76470588235293,100.0
2797,60.95201238390093,100.0
2798,57.70123839009288,100.0
2799,59.49593653250774,100.0
2800,57.76896284829722,100.0
2801,63.67550309597523,100.0
2802,56.932082043343655,100.0
2803,60.787538699690394,100.0
2804,57.67705108359133,100.0
2805,58.320433436532504,100.0
2806,62.01141640866872,100.0
2807,59.8829334365325,100.0
2808,61.45510835913313,100.0
2809,59.44272445820434,100.0
2810,63.03695820433436,100.0
2811,57.44001547987616,100.0
2812,60.50696594427245,100.0
2813,61.179373065015476,100.0
2814,60.661764705882355,100.0
2815,61.6340944272446,100.0
2816,57.406153250774,100.0
2817,62.833784829721345,100.0
2818,59.53947368421053,100.0
2819,59.97968266253869,100.0
2820,60.35700464396285,100.0
2821,60.71013931888545,100.0
2822,60.405379256965944,100.0
2823,60.976199690402474,100.0
2824,61.47445820433436,100.0
2825,63.42879256965945,100.0
2826,55.92589009287925,100.0
2827,60.594040247678016,100.0
2828,60.361842105263165,100.0
2829,58.19465944272446,100.0
2830,61.88564241486068,100.0
2831,61.29547213622292,100.0
2832,59.341137770897824,100.0
2833,58.23819659442725,100.0
2834,61.40189628482972,100.0
2835,61.48897058823528,100.0
2836,59.31211300309598,100.0
2837,61.93885448916409,100.0
2838,61.60506965944272,100.0
2839,60.11513157894737,100.0
2840,58.035023219814256,100.0
2841,61.79373065015479,100.0
2842,63.249806501547994,100.0
2843,57.87054953560372,100.0
2844,60.3328173374613,100.0
2845,59.703947368421055,100.0
2846,62.441950464396285,100.0
2847,60.221555727554176,100.0
2848,59.9796826625387,100.0
2849,62.62577399380805,100.0
2850,60.5843653250774,100.0
2851,60.68595201238391,100.0
2852,61.16002321981424,100.0
2853,60.637577399380795,100.0
2854,55.40828173374613,100.0
2855,57.5077399380805,100.0
2856,61.203560371517035,100.0
2857,58.07856037151702,100.0
2858,56.23548761609908,100.0
2859,62.86280959752321,100.0
2860,62.91602167182663,100.0
2861,62.25812693498451,100.0
2862,56.89821981424149,100.0
2863,58.77999226006192,100.0
2864,59.90712074303406,100.0
2865,59.152476780185744,100.0
2866,58.63970588235295,100.0
2867,57.61416408668731,100.0
2868,62.470975232198136,100.0
2869,56.11455108359134,100.0
2870,61.05359907120743,100.0
2871,58.50909442724459,100.0
2872,58.51393188854489,100.0
2873,62.82410990712075,100.0
2874,60.16350619195047,100.0
2875,59.031540247678016,100.0
2876,66.43285603715171,100.0
2877,60.56501547987615,100.0
2878,56.080688854489175,100.0
2879,58.38332043343654,100.0
2880,58.891253869969034,100.0
2881,63.00309597523219,100.0
2882,63.08049535603715,100.0
2883,61.73084365325079,100.0
2884,57.34326625386998,100.0
2885,62.86764705882353,100.0
2886,57.817337461300305,100.0
2887,61.12132352941177,100.0
2888,55.369582043343655,100.0
2889,63.249806501547994,100.0
2890,55.384094427244584,100.0
2891,62.3500386996904,100.0
2892,57.8028250773994,100.0
2893,57.79315015479876,100.0
2894,53.58455882352941,100.0
2895,62.62577399380807,100.0
2896,66.60700464396282,100.0
2897,55.63564241486069,100.0
2898,59.273413312693506,100.0
2899,54.55688854489164,100.0
2900,62.504837461300305,100.0
2901,65.75077399380807,100.0
2902,61.827592879256976,100.0
2903,60.02805727554179,100.0
2904,57.193304953560364,100.0
2905,60.97619969040246,100.0
2906,60.255417956656345,100.0
2907,57.52708978328173,100.0
2908,57.904411764705884,100.0
2909,60.60371517027864,100.0
2910,58.60100619195047,100.0
2911,57.92859907120743,100.0
2912,60.124806501547994,100.0
2913,56.39512383900928,100.0
2914,59.404024767801864,100.0
2915,58.94930340557275,100.0
2916,60.56017801857585,100.0
2917,53.700657894736835,100.0
2918,56.67569659442725,100.0
2919,59.553986068111456,100.0
2920,67.41486068111455,100.0
2921,60.83107585139319,100.0
2922,56.385448916408684,100.0
2923,59.312113003095966,100.0
2924,62.95955882352941,100.0
2925,66.00232198142416,100.0
2926,61.03424922600619,100.0
2927,60.20704334365326,100.0
2928,61.20356037151702,100.0
2929,60.9375,100.0
2930,56.76760835913313,100.0
2931,59.51528637770898,100.0
2932,57.87054953560372,100.0
2933,58.55263157894736,100.0
2934,58.238196594427244,100.0
2935,60.22639318885448,100.0
2936,63.423955108359145,100.0
2937,57.38680340557275,100.0
2938,58.93962848297213,100.0
2939,59.8780959752322,100.0
2940,58.82352941176471,100.0
2941,61.02941176470587,100.0
2942,62.58223684210526,100.0
2943,59.32662538699691,100.0
2944,60.289280185758514,100.0
2945,62.098490712074316,100.0
2946,58.673568111455104,100.0
2947,58.31075851393189,100.0
2948,58.63970588235294,100.0
2949,56.912732198142415,100.0
2950,62.03560371517028,100.0
2951,59.752321981424146,100.0
2952,62.60158668730651,100.0
2953,58.315595975232206,100.0
2954,57.251354489164086,100.0
2955,57.10139318885449,100.0
2956,59.50077399380803,100.0
2957,59.065402476780186,100.0
2958,61.64376934984519,100.0
2959,56.82565789473684,100.0
2960,64.10603715170278,100.0
2961,58.87674148606811,100.0
2962,57.115905572755416,100.0
2963,59.9361455108359,100.0
2964,59.152476780185765,100.0
2965,55.11803405572755,100.0
2966,60.47794117647059,100.0
2967,59.791021671826634,100.0
2968,57.735100619195045,100.0
2969,58.035023219814235,100.0
2970,58.14628482972136,100.0
2971,57.42550309597522,100.0
2972,59.10893962848297,100.0
2973,61.634094427244584,100.0
2974,62.77573529411766,100.0
2975,62.66447368421053,100.0
2976,59.09926470588236,100.0
2977,59.36048761609907,100.0
2978,55.92105263157895,100.0
2979,60.390866873065015,100.0
2980,59.002515479876166,100.0
2981,58.92995356037152,100.0
2982,56.975619195046434,100.0
2983,59.08475232198142,100.0
2984,61.83243034055728,100.0
2985,57.62867647058823,100.0
2986,55.76141640866873,100.0
2987,58.325270897832816,100.0
2988,60.226393188854495,100.0
2989,60.574690402476776,100.0
2990,60.36667956656347,100.0
2991,61.861455108359145,100.0
2992,56.559597523219814,100.0
2993,59.35565015479876,100.0
2994,60.3811919504644,100.0
2995,59.18633900928792,100.0
2996,61.12132352941177,100.0
2997,60.942337461300305,100.0
2998,60.308630030959755,100.0
2999,60.66660216718266,100.0
3000,57.79315015479876,100.0
3001,60.3328173374613,100.0
3002,58.49941950464396,100.0
3003,55.53889318885449,100.0
3004,57.64318885448917,100.0
3005,62.10332817337461,100.0
3006,60.695626934984524,100.0
3007,57.98181114551084,100.0
3008,57.07236842105262,100.0
3009,55.95491486068111,100.0
3010,62.524187306501545,100.0
3011,58.29624613003095,100.0
3012,63.58359133126935,100.0
3013,57.043343653250766,100.0
3014,61.276122291021665,100.0
3015,61.261609907120736,100.0
3016,61.726006191950454,100.0
3017,62.68382352941177,100.0
3018,57.319078947368425,100.0
3019,56.32256191950465,100.0
3020,61.67279411764707,100.0
3021,57.22716718266254,100.0
3022,60.34249226006194,100.0
3023,57.62383900928792,100.0
3024,58.14628482972136,100.0
3025,61.08262383900929,100.0
3026,61.01973684210526,100.0
3027,61.300309597523224,100.0
3028,60.381191950464384,100.0
3029,64.22213622291022,100.0
3030,62.596749226006175,100.0
3031,58.320433436532504,100.0
3032,58.3639705882353,100.0
3033,58.29140866873065,100.0
3034,59.86842105263158,100.0
3035,60.7875386996904,100.0
3036,61.160023219814256,100.0
3037,62.824109907120736,100.0
3038,61.46478328173374,100.0
3039,60.45375386996904,100.0
3040,60.80205108359132,100.0
3041,62.495162538699695,100.0
3042,60.43924148606811,100.0
3043,64.80746904024767,100.0
3044,63.912538699690394,100.0
3045,58.14144736842105,100.0
3046,63.16273219814243,100.0
3047,61.80824303405572,100.0
3048,61.01973684210526,100.0
3049,58.93962848297213,100.0
3050,59.59752321981424,100.0
3051,53.41524767801859,100.0
3052,57.49322755417956,100.0
3053,54.88099845201238,100.0
3054,62.92085913312694,100.0
3055,60.676277089783284,100.0
3056,60.835913312693506,100.0
3057,62.350038699690415,100.0
3058,61.01973684210527,100.0
3059,55.20994582043344,100.0
3060,61.092298761609904,100.0
3061,58.649380804953566,100.0
3062,60.65692724458205,100.0
3063,62.97890866873065,100.0
3064,59.55398606811145,100.0
3065,59.41369969040247,100.0
3066,60.598877708978335,100.0
3067,60.090944272445824,100.0
3068,57.74477554179567,100.0
3069,60.99071207430341,100.0
3070,58.630030959752325,100.0
3071,60.27960526315789,100.0
3072,61.880804953560364,100.0
3073,62.28715170278639,100.0
3074,63.801277089783284,100.0
3075,57.0530185758514,100.0
3076,56.74342105263157,100.0
3077,57.227167182662534,100.0
3078,58.83804179566563,100.0
3079,60.95684984520125,100.0
3080,59.71845975232198,100.0
3081,62.81927244582043,100.0
3082,62.40325077399381,100.0
3083,57.94794891640866,100.0
3084,60.45859133126935,100.0
3085,58.9734907120743,100.0
3086,58.18498452012384,100.0
3087,60.405379256965944,100.0
3088,57.75928792569659,100.0
3089,61.97755417956655,100.0
3090,59.505611455108344,100.0
3091,57.31424148606811,100.0
3092,61.88080495356038,100.0
3093,59.98935758513932,100.0
3094,61.62441950464396,100.0
3095,55.12770897832817,100.0
3096,63.085332817337466,100.0
3097,59.03637770897833,100.0
3098,62.87732198142414,100.0
3099,61.37287151702787,100.0
3100,60.00870743034055,100.0
3101,61.29547213622292,100.0
3102,57.5077399380805,100.0
3103,56.85468266253869,100.0
3104,63.20626934984521,100.0
3105,64.74941950464397,100.0
3106,62.71768575851394,100.0
3107,62.06462848297213,100.0
3108,60.966524767801864,100.0
3109,58.34945820433437,100.0
3110,57.18846749226005,100.0
3111,58.296246130030966,100.0
3112,56.448335913312704,100.0
3113,64.53173374613004,100.0
3114,57.52708978328173,100.0
3115,57.149767801857585,100.0
3116,59.950657894736835,100.0
3117,58.20917182662537,100.0
3118,61.12616099071209,100.0
3119,60.61339009287925,100.0
3120,61.953366873065,100.0
3121,59.43788699690403,100.0
3122,59.56366099071208,100.0
3123,58.51876934984521,100.0
3124,54.779411764705884,100.0
3125,61.10681114551083,100.0
3126,57.58997678018576,100.0
3127,61.784055727554176,100.0
3128,62.20007739938081,100.0
3129,58.397832817337466,100.0
3130,57.372291021671835,100.0
3131,58.373645510835914,100.0
3132,60.19736842105263,100.0
3133,62.601586687306494,100.0
3134,59.360487616099064,100.0
3135,58.155959752321984,100.0
3136,65.05901702786379,100.0
3137,57.58997678018575,100.0
3138,59.98452012383901,100.0
3139,60.63757739938081,100.0
3140,59.65557275541795,100.0
3141,62.50967492260061,100.0
3142,59.66524767801858,100.0
3143,61.837267801857585,100.0
3144,59.099264705882355,100.0
3145,61.213235294117645,100.0
3146,65.68788699690403,100.0
3147,60.41505417956657,100.0
3148,63.438467492260045,100.0
3149,57.493227554179576,100.0
3150,57.71575077399381,100.0
3151,58.38332043343653,100.0
3152,63.467492260061924,100.0
3153,58.417182662538686,100.0
3154,61.55669504643962,100.0
3155,62.96923374613002,100.0
3156,63.03695820433436,100.0
3157,59.42821207430341,100.0
3158,59.950657894736835,100.0
3159,57.309404024767794,100.0
3160,62.53869969040249,100.0
3161,60.62306501547988,100.0
3162,58.25270897832817,100.0
3163,62.04044117647059,100.0
3164,59.147639318885446,100.0
3165,59.41369969040248,100.0
3166,60.42956656346749,100.0
3167,57.35294117647059,100.0
3168,60.62306501547987,100.0
3169,57.31907894736842,100.0
3170,62.67898606811144,100.0
3171,59.97968266253869,100.0
3172,59.25406346749227,100.0
3173,60.10061919504645,100.0
3174,63.67550309597523,100.0
3175,64.0189628482972,100.0
3176,61.885642414860676,100.0
3177,57.47871517027864,100.0
3178,58.44136996904025,100.0
3179,62.11300309597523,100.0
3180,60.61339009287925,100.0
3181,58.16079721362229,100.0
3182,61.343846749226,100.0
3183,62.98858359133126,100.0
3184,57.851199690402474,100.0
3185,61.37287151702785,100.0
3186,61.27128482972136,100.0
3187,60.41989164086687,100.0
3188,58.48974458204334,100.0
3189,59.5830108359133,100.0
3190,61.87113003095974,100.0
3191,59.18633900928793,100.0
3192,62.833784829721374,100.0
3193,62.12267801857586,100.0
3194,62.55804953560373,100.0
3195,63.21110681114551,100.0
3196,56.428986068111456,100.0
3197,59.37016253869969,100.0
3198,65.16060371517028,100.0
3199,59.26857585139319,100.0
3200,61.22291021671826,100.0
3201,58.475232198142415,100.0
3202,59.99903250773994,100.0
3203,58.460719814241486,100.0
3204,60.361842105263165,100.0
3205,57.101393188854495,100.0
3206,61.64860681114551,100.0
3207,58.978328173374614,100.0
3208,59.641060371517035,100.0
3209,61.41157120743034,100.0
3210,60.942337461300305,100.0
3211,61.503482972136226,100.0
3212,62.446787925696604,100.0
3213,60.60371517027864,100.0
3214,63.2933436532508,100.0
3215,61.66311919504645,100.0
3216,60.54082817337461,100.0
3217,62.08881578947368,100.0
3218,60.903637770897845,100.0
3219,55.16640866873065,100.0
3220,59.815208978328165,100.0
3221,64.19311145510835,100.0
3222,61.2906346749226,100.0
3223,60.74400154798762,100.0
3224,59.42337461300309,100.0
3225,59.529798761609904,100.0
3226,57.99148606811144,100.0
3227,59.62654798761611,100.0
3228,57.72542569659443,100.0
3229,58.809017027863774,100.0
3230,58.6203560371517,100.0
3231,57.69156346749225,100.0
3232,62.703173374613,100.0
3233,59.85390866873065,100.0
3234,58.73645510835914,100.0
3235,57.12074303405572,100.0
3236,63.64647832817337,100.0
3237,60.642414860681114,100.0
3238,56.94175696594427,100.0
3239,58.68808049535604,100.0
3240,60.758513931888544,100.0
3241,59.06540247678019,100.0
3242,58.91544117647059,100.0
3243,61.1358359133127,100.0
3244,58.23335913312694,100.0
3245,60.80688854489164,100.0
3246,60.71497678018576,100.0
3247,59.06056501547988,100.0
3248,59.31211300309598,100.0
3249,59.70878482972136,100.0
3250,58.15595975232197,100.0
3251,58.799342105263165,100.0
3252,59.399187306501545,100.0
3253,59.6265479876161,100.0
3254,64.08184984520123,100.0
3255,61.27128482972136,100.0
3256,60.255417956656345,100.0
3257,62.17105263157896,100.0
3258,59.63138544891641,100.0
3259,55.40828173374613,100.0
3260,60.96168730650156,100.0
3261,57.17879256965944,100.0
3262,58.96381578947369,100.0
3263,66.04102167182663,100.0
3264,58.09307275541795,100.0
3265,59.413699690402474,100.0
3266,54.619775541795676,100.0
3267,60.47310371517027,100.0
3268,58.79934210526315,100.0
3269,59.32662538699691,100.0
3270,58.49941950464397,100.0
3271,56.375773993808046,100.0
3272,55.93556501547988,100.0
3273,56.91273219814241,100.0
3274,62.345201238390096,100.0
3275,63.22561919504645,100.0
3276,60.55050309597523,100.0
3277,59.196013931888544,100.0
3278,63.017608359133135,100.0
3279,57.991486068111456,100.0
3280,61.42608359133128,100.0
3281,58.90092879256966,100.0
3282,60.44891640866872,100.0
3283,61.42608359133128,100.0
3284,59.8345588235294,100.0
3285,57.79798761609907,100.0
3286,60.45859133126935,100.0
3287,58.33010835913313,100.0
3288,61.634094427244584,100.0
3289,61.97271671826626,100.0
3290,59.2734133126935,100.0
3291,60.057082043343655,100.0
3292,63.23045665634674,100.0
3293,60.41021671826626,100.0
3294,60.47794117647059,100.0
3295,61.9436919504644,100.0
3296,59.882933436532504,100.0
3297,58.50425696594428,100.0
3298,55.2921826625387,100.0
3299,60.45859133126935,100.0
3300,62.04527863777089,100.0
3301,62.03560371517028,100.0
3302,58.43653250773993,100.0
3303,64.3624226006192,100.0
3304,64.44465944272444,100.0
3305,61.55185758513932,100.0
3306,60.06675696594427,100.0
3307,59.834558823529406,100.0
3308,63.791602167182674,100.0
3309,62.296826625387,100.0
3310,60.642414860681114,100.0
3311,63.87867647058823,100.0
3312,59.26373839009288,100.0
3313,62.27263931888545,100.0
3314,58.847716718266255,100.0
3315,59.36532507739937,100.0
3316,59.62654798761609,100.0
3317,60.44891640866874,100.0
3318,64.05766253869967,100.0
3319,58.344620743034056,100.0
3320,59.73780959752321,100.0
3321,56.43382352941176,100.0
3322,61.18904798761611,100.0
3323,59.89744582043343,100.0
3324,61.203560371517035,100.0
3325,60.052244582043336,100.0
3326,58.460719814241486,100.0
3327,60.16834365325077,100.0
3328,62.761222910216716,100.0
3329,58.857391640866865,100.0
3330,56.97078173374613,100.0
3331,55.86300309597522,100.0
3332,62.37906346749225,100.0
3333,63.64164086687306,100.0
3334,59.805534055727556,100.0
3335,57.62867647058823,100.0
3336,59.22020123839009,100.0
3337,59.92163312693498,100.0
3338,62.79992260061919,100.0
3339,59.723297213622295,100.0
3340,64.06733746130033,100.0
3341,60.1344814241486,100.0
3342,58.97832817337461,100.0
3343,57.78347523219814,100.0
3344,64.42530959752322,100.0
3345,58.475232198142415,100.0
3346,64.45917182662538,100.0
3347,62.37422600619196,100.0
3348,57.851199690402474,100.0
3349,62.093653250774,100.0
3350,56.54508513931889,100.0
3351,54.31501547987616,100.0
3352,60.971362229102155,100.0
3353,60.05224458204335,100.0
3354,62.20007739938081,100.0
3355,57.2610294117647,100.0
3356,62.60642414860683,100.0
3357,62.04527863777089,100.0
3358,57.952786377708975,100.0
3359,62.54837461300309,100.0
3360,59.69910990712075,100.0
3361,61.83243034055728,100.0
3362,62.36455108359132,100.0
3363,56.656346749225996,100.0
3364,61.871130030959755,100.0
3365,59.931308049535595,100.0
3366,61.145510835913306,100.0
3367,58.397832817337466,100.0
3368,64.03831269349847,100.0
3369,59.84907120743034,100.0
3370,63.13370743034055,100.0
3371,55.92105263157895,100.0
3372,65.99264705882354,100.0
3373,61.576044891640855,100.0
3374,54.46981424148606,100.0
3375,56.9562693498452,100.0
3376,58.431695046439636,100.0
3377,59.66041021671826,100.0
3378,58.41718266253869,100.0
3379,57.84152476780185,100.0
3380,57.111068111455104,100.0
3381,60.45375386996904,100.0
3382,61.53734520123838,100.0
3383,59.20568885448916,100.0
3384,62.21458978328174,100.0
3385,58.33494582043343,100.0
3386,57.88989938080495,100.0
3387,60.608552631578945,100.0
3388,57.56578947368421,100.0
3389,59.50561145510836,100.0
3390,56.25483746130031,100.0
3391,60.19736842105263,100.0
3392,62.7563854489164,100.0
3393,58.11726006191952,100.0
3394,62.97890866873065,100.0
3395,63.6609907120743,100.0
3396,61.900154798761605,100.0
3397,56.88854489164085,100.0
3398,59.7765092879257,100.0
3399,62.66931114551085,100.0
3400,63.21110681114553,100.0
3401,62.54353715170279,100.0
3402,59.162151702786375,100.0
3403,59.447561919504636,100.0
3404,56.99496904024768,100.0
3405,59.55398606811145,100.0
3406,61.22774767801858,100.0
3407,59.03637770897833,100.0
3408,56.1000386996904,100.0
3409,59.86842105263158,100.0
3410,58.56714396284831,100.0
3411,60.14899380804953,100.0
3412,64.32856037151703,100.0
3413,59.63138544891642,100.0
3414,58.339783281733745,100.0
3415,62.76122291021673,100.0
3416,60.47794117647059,100.0
3417,60.013544891640855,100.0
3418,60.02321981424148,100.0
3419,58.86222910216718,100.0
3420,60.187693498452006,100.0
3421,58.363970588235304,100.0
3422,59.83455882352941,100.0
3423,59.52012383900928,100.0
3424,61.871130030959755,100.0
3425,59.07991486068111,100.0
3426,62.074303405572756,100.0
3427,57.95762383900929,100.0
3428,61.3970588235294,100.0
3429,60.44407894736842,100.0
3430,58.97832817337461,100.0
3431,62.33068885448917,100.0
3432,61.508320433436545,100.0
3433,60.10545665634675,100.0
3434,56.845007739938076,100.0
3435,58.15595975232198,100.0
3436,59.858746130030966,100.0
3437,60.913312693498455,100.0
3438,56.0516640866873,100.0
3439,59.824883900928796,100.0
3440,55.51954334365325,100.0
3441,58.833204334365334,100.0
3442,55.548568111455104,100.0
3443,59.2250386996904,100.0
3444,60.5359907120743,100.0
3445,61.22774767801858,100.0
3446,57.232004643962846,100.0
3447,57.17395510835913,100.0
3448,60.45859133126935,100.0
3449,60.46826625386996,100.0
3450,61.67279411764706,100.0
3451,56.77244582043345,100.0
3452,58.702592879256976,100.0
3453,61.27128482972136,100.0
3454,63.36106811145511,100.0
3455,59.094427244582036,100.0
3456,56.46284829721361,100.0
3457,61.29547213622292,100.0
3458,62.01141640866872,100.0
3459,56.74342105263157,100.0
3460,54.71168730650155,100.0
3461,57.58513931888544,100.0
3462,60.632739938080505,100.0
3463,58.32043343653251,100.0
3464,59.389512383900936,100.0
3465,62.57256191950464,100.0
3466,58.13660990712074,100.0
3467,63.23045665634675,100.0
3468,60.23123065015479,100.0
3469,61.47445820433436,100.0
3470,61.03908668730651,100.0
3471,64.03347523219816,100.0
3472,62.34520123839008,100.0
3473,58.70743034055727,100.0
3474,60.627902476780186,100.0
3475,62.30650154798762,100.0
3476,59.08958978328174,100.0
3477,59.49109907120743,100.0
3478,59.11377708978328,100.0
3479,62.18556501547987,100.0
3480,56.21130030959753,100.0
3481,58.296246130030966,100.0
3482,60.3860294117647,100.0
3483,64.70588235294117,100.0
3484,62.52418730650153,100.0
3485,60.013544891640855,100.0
3486,60.56985294117647,100.0
3487,61.547020123839005,100.0
3488,57.99148606811145,100.0
3489,60.49245356037152,100.0
3490,61.84210526315789,100.0
3491,59.25890092879257,100.0
3492,61.3970588235294,100.0
3493,59.75715944272446,100.0
3494,57.03850619195047,100.0
3495,63.830301857585134,100.0
3496,63.42395510835913,100.0
3497,63.075657894736835,100.0
3498,56.61764705882353,100.0
3499,62.77573529411763,100.0
3500,59.152476780185765,100.0
3501,60.816563467492266,100.0
3502,62.52902476780185,100.0
3503,62.66447368421051,100.0
3504,59.24922600619194,100.0
3505,61.6486068111455,100.0
3506,58.00599845201238,100.0
3507,57.35294117647059,100.0
3508,61.31482198142415,100.0
3509,59.81037151702785,100.0
3510,59.979682662538686,100.0
3511,58.21884674922601,100.0
3512,64.45917182662538,100.0
3513,61.77438080495355,100.0
3514,63.21110681114551,100.0
3515,63.34171826625387,100.0
3516,53.415247678018574,100.0
3517,60.57469040247679,100.0
3518,59.9264705882353,100.0
3519,58.867066563467496,100.0
3520,57.212654798761605,100.0
3521,61.72116873065016,100.0
3522,61.64376934984519,100.0
3523,60.88428792569659,100.0
3524,56.63699690402477,100.0
3525,54.000580495356026,100.0
3526,59.84907120743035,100.0
3527,62.13235294117646,100.0
3528,61.72116873065016,100.0
3529,55.388931888544896,100.0
3530,58.18982198142414,100.0
3531,59.81520897832817,100.0
3532,59.82972136222911,100.0
3533,59.616873065015476,100.0
3534,60.52631578947369,100.0
3535,59.181501547987615,100.0
3536,60.31830495356038,100.0
3537,58.86706656346749,100.0
3538,63.81578947368422,100.0
3539,59.3266253869969,100.0
3540,61.64376934984521,100.0
3541,61.19388544891641,100.0
3542,59.181501547987615,100.0
3543,59.34113777089784,100.0
3544,58.35429566563468,100.0
3545,55.95491486068111,100.0
3546,55.804953560371516,100.0
3547,59.52012383900929,100.0
3548,58.412345201238395,100.0
3549,56.8014705882353,100.0
3550,57.65770123839009,100.0
3551,57.35294117647058,100.0
3552,60.40054179566564,100.0
3553,63.23045665634677,100.0
3554,63.35623065015481,100.0
3555,59.404024767801864,100.0
3556,61.3390092879257,100.0
3557,59.902283281733745,100.0
3558,56.99013157894738,100.0
3559,59.73297213622291,100.0
3560,61.08262383900929,100.0
3561,60.594040247678016,100.0
3562,60.85526315789474,100.0
3563,63.525541795665625,100.0
3564,60.71981424148606,100.0
3565,55.15673374613002,100.0
3566,61.39222136222911,100.0
3567,60.08126934984521,100.0
3568,57.381965944272444,100.0
3569,61.55669504643962,100.0
3570,60.84075077399381,100.0
3571,59.73297213622291,100.0
3572,63.003095975232206,100.0
3573,60.41505417956657,100.0
3574,61.6486068111455,100.0
3575,59.853908668730654,100.0
3576,64.40595975232199,100.0
3577,54.74554953560371,100.0
3578,60.908475232198136,100.0
3579,62.190402476780186,100.0
3580,57.17395510835914,100.0
3581,58.06404798761611,100.0
3582,58.70743034055727,100.0
3583,62.13235294117647,100.0
3584,58.659055727554176,100.0
3585,58.04953560371517,100.0
3586,60.80688854489164,100.0
3587,63.17240712074304,100.0
3588,58.359133126934985,100.0
3589,62.14202786377708,100.0
3590,62.61609907120743,100.0
3591,59.18633900928791,100.0
3592,58.8767414860681,100.0
3593,60.690789473684205,100.0
3594,60.352167182662534,100.0
3595,60.63273993808049,100.0
3596,59.66524767801858,100.0
3597,55.43730650154799,100.0
3598,57.49806501547988,100.0
3599,61.82275541795666,100.0
3600,58.67356811145512,100.0
3601,59.85390866873064,100.0
3602,61.779218266253885,100.0
3603,55.56308049535603,100.0
3604,57.97697368421053,100.0
3605,60.318304953560364,100.0
3606,61.450270897832816,100.0
3607,55.688854489164086,100.0
3608,54.22310371517028,100.0
3609,58.963815789473685,100.0
3610,62.04044117647059,100.0
3611,60.34732972136223,100.0
3612,56.81114551083591,100.0
3613,62.68866099071206,100.0
3614,59.35081269349843,100.0
3615,61.23742260061919,100.0
3616,58.95414086687306,100.0
3617,60.76818885448917,100.0
3618,61.70665634674923,100.0
3619,58.29140866873064,100.0
3620,58.48490712074303,100.0
3621,60.35700464396285,100.0
3622,57.49322755417957,100.0
3623,59.244388544891635,100.0
3624,64.86068111455108,100.0
3625,54.50367647058823,100.0
3626,62.9934210526316,100.0
3627,62.69833591331268,100.0
3628,60.071594427244584,100.0
3629,61.82759287925696,100.0
3630,61.484133126934985,100.0
3631,61.01973684210526,100.0
3632,57.61416408668731,100.0
3633,59.59752321981423,100.0
3634,58.775154798761605,100.0
3635,55.22929566563468,100.0
3636,61.76954334365326,100.0
3637,60.627902476780186,100.0
3638,61.24226006191951,100.0
3639,60.19736842105264,100.0
3640,60.037732198142415,100.0
3641,60.52631578947369,100.0
3642,62.36938854489164,100.0
3643,58.74129256965944,100.0
3644,60.68595201238391,100.0
3645,58.7219427244582,100.0
3646,61.27128482972136,100.0
3647,57.98181114551084,100.0
3648,58.184984520123834,100.0
3649,61.17453560371517,100.0
3650,55.388931888544896,100.0
3651,62.14202786377708,100.0
3652,55.42279411764705,100.0
3653,59.42821207430341,100.0
3654,60.23606811145511,100.0
3655,61.37770897832819,100.0
3656,56.85468266253871,100.0
3657,59.413699690402474,100.0
3658,57.27070433436532,100.0
3659,62.98858359133128,100.0
3660,62.26296439628483,100.0
3661,63.114357585139324,100.0
3662,57.59965170278639,100.0
3663,62.291989164086694,100.0
3664,60.44407894736843,100.0
3665,61.547020123839005,100.0
3666,58.852554179566575,100.0
3667,59.887770897832816,100.0
3668,56.52089783281733,100.0
3669,56.57894736842104,100.0
3670,61.62441950464396,100.0
3671,60.98103715170278,100.0
3672,63.96091331269349,100.0
3673,59.76199690402476,100.0
3674,62.27747678018576,100.0
3675,60.187693498452006,100.0
3676,56.9562693498452,100.0
3677,60.41989164086687,100.0
3678,58.44620743034054,100.0
3679,61.880804953560364,100.0
3680,62.96923374613002,100.0
3681,63.24013157894738,100.0
3682,61.73084365325077,100.0
3683,59.28792569659442,100.0
3684,59.1234520123839,100.0
3685,60.565015479876166,100.0
3686,58.43653250773995,100.0
3687,58.001160990712066,100.0
3688,59.87809597523221,100.0
3689,62.838622291021665,100.0
3690,58.80417956656347,100.0
3691,59.15731424148606,100.0
3692,60.47310371517028,100.0
3693,55.050309597523224,100.0
3694,62.33552631578949,100.0
3695,61.837267801857585,100.0
3696,59.6265479876161,100.0
3697,61.39705882352941,100.0
3698,60.20220588235294,100.0
3699,60.34732972136223,100.0
3700,61.59539473684211,100.0
3701,61.387383900928796,100.0
3702,61.73084365325076,100.0
3703,60.10545665634675,100.0
3704,61.50348297213624,100.0
3705,56.64667182662538,100.0
3706,59.907120743034056,100.0
3707,60.835913312693506,100.0
3708,59.4233746130031,100.0
3709,59.32662538699691,100.0
3710,59.46207430340558,100.0
3711,56.46768575851393,100.0
3712,66.69891640866872,100.0
3713,60.91815015479876,100.0
3714,63.83513931888547,100.0
3715,59.984520123839005,100.0
3716,56.86435758513932,100.0
3717,64.35274767801857,100.0
3718,57.972136222910216,100.0
3719,60.294117647058826,100.0
3720,63.27883126934984,100.0
3721,57.54643962848297,100.0
3722,62.2436145510836,100.0
3723,63.87867647058823,100.0
3724,60.46826625386998,100.0
3725,61.276122291021665,100.0
3726,54.924535603715164,100.0
3727,62.843459752321984,100.0
3728,62.04527863777089,100.0
3729,57.31424148606811,100.0
3730,58.21884674922601,100.0
3731,60.80688854489164,100.0
3732,58.40267027863778,100.0
3733,55.17608359133127,100.0
3734,62.21458978328174,100.0
3735,59.94582043343652,100.0
3736,62.31617647058823,100.0
3737,58.180147058823536,100.0
3738,59.650735294117645,100.0
3739,61.755030959752304,100.0
3740,62.12267801857586,100.0
3741,59.220201238390096,100.0
3742,64.13989938080496,100.0
3743,59.35565015479876,100.0
3744,57.49322755417956,100.0
3745,58.663893188854495,100.0
3746,63.58842879256967,100.0
3747,61.51799535603715,100.0
3748,58.90576625386996,100.0
3749,56.72890866873065,100.0
3750,62.441950464396285,100.0
3751,56.56927244582043,100.0
3752,62.751547987616114,100.0
3753,57.3577786377709,100.0
3754,61.11164860681114,100.0
3755,60.5359907120743,100.0
3756,59.15731424148606,100.0
3757,56.94175696594427,100.0
3758,64.07701238390094,100.0
3759,62.732198142414866,100.0
3760,60.942337461300305,100.0
3761,63.2546439628483,100.0
3762,60.64725232198142,100.0
3763,60.7391640866873,100.0
3764,61.145510835913306,100.0
3765,57.62867647058824,100.0
3766,59.824883900928796,100.0
3767,64.44949690402477,100.0
3768,60.26025541795666,100.0
3769,61.78889318885449,100.0
3770,58.388157894736835,100.0
3771,59.950657894736835,100.0
3772,61.745356037151716,100.0
3773,59.495936532507734,100.0
3774,56.45801083591331,100.0
3775,57.93343653250774,100.0
3776,60.608552631578945,100.0
3777,59.447561919504636,100.0
3778,60.13448142414861,100.0
3779,59.18633900928792,100.0
3780,60.39570433436532,100.0
3781,56.84984520123839,100.0
3782,60.78270123839008,100.0
3783,60.20220588235294,100.0
3784,61.61958204334364,100.0
3785,57.84636222910217,100.0
3786,61.276122291021665,100.0
3787,61.750193498452006,100.0
3788,59.68459752321981,100.0
3789,62.780572755417964,100.0
3790,62.708010835913306,100.0
3791,59.59752321981425,100.0
3792,64.0141253869969,100.0
3793,58.91544117647059,100.0
3794,58.755804953560364,100.0
3795,64.77844427244581,100.0
3796,58.746130030959755,100.0
3797,59.28792569659442,100.0
3798,58.54295665634675,100.0
3799,57.9140866873065,100.0
3800,58.34945820433436,100.0
3801,61.62925696594428,100.0
3802,59.244388544891635,100.0
3803,55.52921826625387,100.0
3804,63.40944272445821,100.0
3805,59.58301083591332,100.0
3806,61.875967492260074,100.0
3807,58.47523219814241,100.0
3808,55.432469040247675,100.0
3809,57.61900154798761,100.0
3810,58.528444272445824,100.0
3811,62.97407120743033,100.0
3812,59.263738390092875,100.0
3813,60.52147832817337,100.0
3814,55.16640866873065,100.0
3815,64.95259287925695,100.0
3816,58.02051083591331,100.0
3817,57.5125773993808,100.0
3818,59.13796439628482,100.0
3819,60.29895510835913,100.0
3820,62.35487616099071,100.0
3821,57.493227554179555,100.0
3822,59.413699690402474,100.0
3823,57.20297987616101,100.0
3824,57.56095201238389,100.0
3825,59.64106037151703,100.0
3826,60.400541795665625,100.0
3827,61.619582043343655,100.0
3828,59.08958978328174,100.0
3829,57.169117647058826,100.0
3830,61.08262383900927,100.0
3831,61.05843653250775,100.0
3832,59.59268575851393,100.0
3833,59.59268575851394,100.0
3834,57.87054953560372,100.0
3835,56.9078947368421,100.0
3836,59.05572755417957,100.0
3837,57.42550309597524,100.0
3838,58.489744582043336,100.0
3839,59.25406346749226,100.0
3840,59.83455882352941,100.0
3841,59.805534055727556,100.0
3842,59.48142414860681,100.0
3843,62.43227554179566,100.0
3844,63.37074303405572,100.0
3845,60.47794117647057,100.0
3846,59.57817337461301,100.0
3847,62.02592879256966,100.0
3848,58.842879256965944,100.0
3849,62.00657894736843,100.0
3850,62.296826625387,100.0
3851,60.92298761609907,100.0
3852,60.64725232198142,100.0
3853,59.86358359133127,100.0
3854,62.7950851393189,100.0
3855,58.015673374613,100.0
3856,58.68808049535604,100.0
3857,58.32043343653251,100.0
3858,56.01780185758514,100.0
3859,62.703173374613,100.0
3860,64.23664860681116,100.0
3861,60.59887770897832,100.0
3862,60.124806501547994,100.0
3863,59.51044891640867,100.0
3864,62.77089783281734,100.0
3865,64.85584365325077,100.0
3866,59.84423374613003,100.0
3867,56.54024767801859,100.0
3868,56.08552631578947,100.0
3869,63.699690402476776,100.0
3870,63.104682662538686,100.0
3871,59.52012383900928,100.0
3872,60.86977554179566,100.0
3873,56.66602167182663,100.0
3874,60.04256965944273,100.0
3875,58.49941950464396,100.0
3876,59.907120743034056,100.0
3877,60.16350619195047,100.0
3878,57.14493034055727,100.0
3879,60.54566563467491,100.0
3880,59.786184210526315,100.0
3881,55.1954334365325,100.0
3882,62.02109133126935,100.0
3883,57.62867647058823,100.0
3884,58.95414086687306,100.0
3885,56.96110681114551,100.0
3886,57.014318885448915,100.0
3887,64.68169504643963,100.0
3888,59.752321981424146,100.0
3889,56.91273219814241,100.0
3890,57.63351393188855,100.0
3891,59.25406346749225,100.0
3892,61.75986842105264,100.0
3893,58.61551857585139,100.0
3894,63.33204334365325,100.0
3895,61.79373065015481,100.0
3896,62.63544891640866,100.0
3897,64.68653250773995,100.0
3898,64.5172213622291,100.0
3899,61.28579721362229,100.0
3900,58.81385448916408,100.0
3901,63.18208204334366,100.0
3902,58.73645510835914,100.0
3903,56.7047213622291,100.0
3904,58.73645510835913,100.0
3905,61.92434210526315,100.0
3906,56.124226006191954,100.0
3907,59.84423374613004,100.0
3908,60.80688854489164,100.0
3909,60.187693498452006,100.0
3910,59.96517027863777,100.0
3911,58.494582043343655,100.0
3912,56.69020897832817,100.0
3913,57.938273993808046,100.0
3914,61.619582043343655,100.0
3915,57.7592879256966,100.0
3916,60.666602167182674,100.0
3917,54.363390092879264,100.0
3918,59.16215170278638,100.0
3919,59.65557275541796,100.0
3920,65.59113777089783,100.0
3921,64.1108746130031,100.0
3922,61.208397832817326,100.0
3923,61.1358359133127,100.0
3924,58.20917182662539,100.0
3925,61.93885448916409,100.0
3926,63.414280185758514,100.0
3927,66.85855263157895,100.0
3928,58.09307275541795,100.0
3929,59.43788699690403,100.0
3930,62.84829721362229,100.0
3931,58.799342105263165,100.0
3932,60.424729102167184,100.0
3933,61.50832043343653,100.0
3934,61.04392414860681,100.0
3935,60.511803405572756,100.0
3936,56.6515092879257,100.0
3937,62.5,100.0
3938,54.324690402476776,100.0
3939,62.166215170278626,100.0
3940,64.468846749226,100.0
3941,64.09636222910218,100.0
3942,58.95897832817337,100.0
3943,61.934017027863774,100.0
3944,61.522832817337466,100.0
3945,62.34036377708978,100.0
3946,59.742647058823536,100.0
3947,61.13583591331268,100.0
3948,62.70317337461299,100.0
3949,59.42337461300309,100.0
3950,63.51102941176472,100.0
3951,56.9078947368421,100.0
3952,58.08339783281733,100.0
3953,61.59539473684211,100.0
3954,60.298955108359145,100.0
3955,58.39299535603715,100.0
3956,59.93614551083591,100.0
3957,62.63544891640868,100.0
3958,58.64454334365325,100.0
3959,61.35352167182662,100.0
3960,56.94175696594428,100.0
3961,57.31424148606811,100.0
3962,57.84636222910216,100.0
3963,60.14899380804953,100.0
3964,56.91756965944273,100.0
3965,62.52902476780185,100.0
3966,64.80746904024765,100.0
3967,61.69698142414862,100.0
3968,58.28173374613004,100.0
3969,59.11861455108359,100.0
3970,60.047407120743024,100.0
3971,57.88022445820434,100.0
3972,59.771671826625386,100.0
3973,61.05843653250775,100.0
3974,58.08339783281733,100.0
3975,61.4357585139319,100.0
3976,60.76818885448917,100.0
3977,59.51044891640867,100.0
3978,61.49864551083591,100.0
3979,56.22581269349845,100.0
3980,61.10197368421053,100.0
3981,57.46904024767802,100.0
3982,60.11513157894736,100.0
3983,58.47523219814241,100.0
3984,61.93885448916409,100.0
3985,63.34171826625387,100.0
3986,57.638351393188856,100.0
3987,59.40402476780186,100.0
3988,59.22987616099071,100.0
3989,60.11996904024768,100.0
3990,58.34462074303405,100.0
3991,56.588622291021665,100.0
3992,61.50832043343653,100.0
3993,64.09152476780186,100.0
3994,61.590557275541805,100.0
3995,57.84152476780185,100.0
3996,56.090363777089784,100.0
3997,58.89609133126935,100.0
3998,60.31346749226006,100.0
3999,61.01973684210526,100.0
4000,60.10061919504644,100.0
4001,59.06056501547988,100.0
4002,61.116486068111456,100.0
4003,59.03154024767802,100.0
4004,57.73026315789474,100.0
4005,59.51044891640866,100.0
4006,63.56424148606813,100.0
4007,61.04392414860681,100.0
4008,61.90982972136223,100.0
4009,57.97697368421052,100.0
4010,58.33010835913313,100.0
4011,62.166215170278626,100.0
4012,59.88777089783281,100.0
4013,60.85042569659442,100.0
4014,58.078560371517035,100.0
4015,57.222329721362236,100.0
4016,61.261609907120764,100.0
4017,60.81656346749225,100.0
4018,64.23664860681116,100.0
4019,59.882933436532504,100.0
4020,61.99206656346749,100.0
4021,57.74477554179566,100.0
4022,57.043343653250766,100.0
4023,59.341137770897824,100.0
4024,58.86706656346748,100.0
4025,58.77031733746129,100.0
4026,63.90286377708979,100.0
4027,60.48277863777089,100.0
4028,59.181501547987615,100.0
4029,59.43304953560371,100.0
4030,56.47252321981424,100.0
4031,55.67917956656346,100.0
4032,59.3217879256966,100.0
4033,59.887770897832816,100.0
4034,58.18982198142414,100.0
4035,60.594040247678016,100.0
4036,58.9202786377709,100.0
4037,65.14125386996903,100.0
4038,58.74129256965945,100.0
4039,54.731037151702786,100.0
4040,54.76489938080495,100.0
4041,61.05359907120743,100.0
4042,59.76199690402477,100.0
4043,60.695626934984524,100.0
4044,61.029411764705884,100.0
4045,58.90576625386997,100.0
4046,53.50715944272446,100.0
4047,62.296826625387,100.0
4048,59.47174922600619,100.0
4049,61.750193498452006,100.0
4050,56.15325077399381,100.0
4051,58.60100619195046,100.0
4052,58.01083591331269,100.0
4053,61.69698142414863,100.0
4054,61.1358359133127,100.0
4055,60.56017801857586,100.0
4056,61.57120743034055,100.0
4057,58.542956656346746,100.0
4058,61.83726780185757,100.0
4059,61.150348297213625,100.0
4060,62.60158668730651,100.0
4061,60.48761609907121,100.0
4062,59.916795665634666,100.0
4063,59.181501547987615,100.0
4064,60.221555727554176,100.0
4065,59.95065789473684,100.0
4066,56.090363777089784,100.0
4067,61.67279411764707,100.0
4068,57.19330495356037,100.0
4069,59.839396284829725,100.0
4070,59.297600619195045,100.0
4071,62.40325077399381,100.0
4072,59.35081269349845,100.0
4073,62.016253869969034,100.0
4074,57.94794891640866,100.0
4075,57.12074303405573,100.0
4076,58.809017027863774,100.0
4077,61.07778637770898,100.0
4078,58.707430340557266,100.0
4079,57.04334365325077,100.0
4080,57.48839009287926,100.0
4081,59.873258513931894,100.0
4082,60.30379256965945,100.0
4083,59.96033281733746,100.0
4084,59.5733359133127,100.0
4085,61.93885448916408,100.0
4086,62.60642414860683,100.0
4087,58.18982198142415,100.0
4088,64.80746904024767,100.0
4089,57.435178018575854,100.0
4090,61.28579721362229,100.0
4091,59.72329721362229,100.0
4092,54.15537925696596,100.0
4093,55.4469814241486,100.0
4094,61.22774767801857,100.0
4095,59.80553405572755,100.0
4096,62.7563854489164,100.0
4097,59.844233746130044,100.0
4098,59.8780959752322,100.0
4099,60.52631578947369,100.0
4100,60.124806501547994,100.0
4101,64.81230650154798,100.0
4102,61.42608359133126,100.0
4103,58.08339783281734,100.0
4104,61.66795665634677,100.0
4105,57.50290247678019,100.0
4106,58.60584365325077,100.0
4107,58.38815789473684,100.0
4108,62.83862229102168,100.0
4109,61.05359907120743,100.0
4110,56.999806501547994,100.0
4111,61.07294891640866,100.0
4112,59.868421052631575,100.0
4113,63.520704334365334,100.0
4114,56.88370743034056,100.0
4115,65.03482972136223,100.0
4116,62.5,100.0
4117,58.70743034055728,100.0
4118,58.34945820433437,100.0
4119,64.96226780185759,100.0
4120,58.58165634674923,100.0
4121,62.3935758513932,100.0
4122,58.218846749226,100.0
4123,57.53676470588236,100.0
4124,58.330108359133135,100.0
4125,53.82643188854489,100.0
4126,57.90441176470588,100.0
4127,59.08475232198143,100.0
4128,60.04256965944272,100.0
4129,61.343846749226,100.0
4130,60.67143962848298,100.0
4131,61.3390092879257,100.0
4132,59.24438854489164,100.0
4133,59.36048761609907,100.0
4134,61.5421826625387,100.0
4135,61.3390092879257,100.0
4136,60.342492260061924,100.0
4137,63.21110681114551,100.0
4138,59.67008513931888,100.0
4139,56.946594427244584,100.0
4140,62.42260061919505,100.0
4141,58.339783281733745,100.0
4142,63.9560758513932,100.0
4143,59.89744582043344,100.0
4144,56.06133900928793,100.0
4145,62.30650154798761,100.0
4146,64.97194272445822,100.0
4147,58.59616873065016,100.0
4148,58.983165634674926,100.0
4149,63.53521671826626,100.0
4150,60.511803405572756,100.0
