sample_id,accuracy,window_size,window_size_sec
0,58.436532507739926,10.0,2.0
1,55.31636996904025,10.0,2.0
2,60.94717492260061,10.0,2.0
3,60.202205882352935,10.0,2.0
4,59.36532507739939,10.0,2.0
5,57.45452786377707,10.0,2.0
6,60.531153250774004,10.0,2.0
7,57.86571207430341,10.0,2.0
8,58.407507739938076,10.0,2.0
9,56.903057275541805,10.0,2.0
10,62.20007739938081,10.0,2.0
11,57.26586687306502,10.0,2.0
12,56.68537151702785,10.0,2.0
13,55.21478328173375,10.0,2.0
14,56.85468266253869,10.0,2.0
15,56.16292569659443,10.0,2.0
16,55.843653250774004,10.0,2.0
17,54.36822755417956,10.0,2.0
18,60.3328173374613,10.0,2.0
19,56.16776315789475,10.0,2.0
20,58.34945820433436,10.0,2.0
21,56.06133900928792,10.0,2.0
22,54.34404024767802,10.0,2.0
23,56.071013931888544,10.0,2.0
24,55.86784055727554,10.0,2.0
25,59.616873065015476,10.0,2.0
26,61.07778637770898,10.0,2.0
27,57.212654798761605,10.0,2.0
28,58.18498452012383,10.0,2.0
29,54.179566563467496,10.0,2.0
30,58.48006965944273,10.0,2.0
31,55.49051857585139,10.0,2.0
32,56.419311145510825,10.0,2.0
33,54.61493808049536,10.0,2.0
34,58.01567337461299,10.0,2.0
35,57.43034055727554,10.0,2.0
36,56.874032507739926,10.0,2.0
37,57.159442724458195,10.0,2.0
38,56.62732198142415,10.0,2.0
39,60.79721362229103,10.0,2.0
40,55.93556501547987,10.0,2.0
41,57.73026315789475,10.0,2.0
42,57.12558049535603,10.0,2.0
43,57.86087461300309,10.0,2.0
44,60.29411764705882,10.0,2.0
45,61.837267801857564,10.0,2.0
46,62.01625386996904,10.0,2.0
47,59.2250386996904,10.0,2.0
48,57.299729102167184,10.0,2.0
49,54.62461300309598,10.0,2.0
50,58.70743034055727,10.0,2.0
51,57.551277089783284,10.0,2.0
52,57.13041795665635,10.0,2.0
53,57.73993808049536,10.0,2.0
54,56.16292569659443,10.0,2.0
55,55.979102167182674,10.0,2.0
56,60.90847523219814,10.0,2.0
57,59.80069659442725,10.0,2.0
58,59.70394736842104,10.0,2.0
59,59.307275541795676,10.0,2.0
60,57.3577786377709,10.0,2.0
61,58.721942724458195,10.0,2.0
62,60.13931888544892,10.0,2.0
63,60.3328173374613,10.0,2.0
64,55.979102167182674,10.0,2.0
65,62.514512383900936,10.0,2.0
66,57.077205882352935,10.0,2.0
67,60.057082043343655,10.0,2.0
68,59.95549535603715,10.0,2.0
69,56.21130030959753,10.0,2.0
70,52.96052631578946,10.0,2.0
71,55.24864551083592,10.0,2.0
72,56.99013157894736,10.0,2.0
73,53.618421052631575,10.0,2.0
74,61.421246130030966,10.0,2.0
75,57.628676470588225,10.0,2.0
76,57.37229102167183,10.0,2.0
77,56.34674922600618,10.0,2.0
78,58.89609133126936,10.0,2.0
79,57.7060758513932,10.0,2.0
80,58.71226780185758,10.0,2.0
81,56.46284829721362,10.0,2.0
82,57.391640866873075,10.0,2.0
83,56.7047213622291,10.0,2.0
84,59.82972136222911,10.0,2.0
85,58.61068111455108,10.0,2.0
86,57.720588235294116,10.0,2.0
87,56.31288699690403,10.0,2.0
88,55.23413312693498,10.0,2.0
89,59.592685758513916,10.0,2.0
90,57.69640092879257,10.0,2.0
91,57.64802631578946,10.0,2.0
92,55.11803405572755,10.0,2.0
93,57.70607585139317,10.0,2.0
94,53.21207430340558,10.0,2.0
95,61.93401702786378,10.0,2.0
96,58.37364551083592,10.0,2.0
97,62.7080108359133,10.0,2.0
98,56.066176470588225,10.0,2.0
99,57.54160216718265,10.0,2.0
100,58.06404798761611,10.0,2.0
101,56.965944272445824,10.0,2.0
102,63.38525541795666,10.0,2.0
103,60.753676470588246,10.0,2.0
104,60.82140092879257,10.0,2.0
105,59.91679566563467,10.0,2.0
106,58.82352941176471,10.0,2.0
107,57.68188854489164,10.0,2.0
108,62.59674922600618,10.0,2.0
109,58.2672213622291,10.0,2.0
110,60.652089783281724,10.0,2.0
111,57.64802631578947,10.0,2.0
112,57.933436532507756,10.0,2.0
113,60.637577399380795,10.0,2.0
114,52.12848297213621,10.0,2.0
115,56.62248452012384,10.0,2.0
116,59.37016253869968,10.0,2.0
117,57.18363003095976,10.0,2.0
118,56.206462848297214,10.0,2.0
119,56.81598297213623,10.0,2.0
120,57.0481811145511,10.0,2.0
121,58.838041795665646,10.0,2.0
122,55.5485681114551,10.0,2.0
123,61.40673374613003,10.0,2.0
124,57.64802631578948,10.0,2.0
125,56.428986068111456,10.0,2.0
126,57.140092879256976,10.0,2.0
127,55.25348297213622,10.0,2.0
128,56.62732198142415,10.0,2.0
129,55.074496904024784,10.0,2.0
130,57.12074303405573,10.0,2.0
131,60.41989164086687,10.0,2.0
132,55.95007739938081,10.0,2.0
133,62.98374613003096,10.0,2.0
134,60.98587461300309,10.0,2.0
135,56.99013157894736,10.0,2.0
136,58.5187693498452,10.0,2.0
137,61.426083591331256,10.0,2.0
138,58.58165634674922,10.0,2.0
139,56.91273219814242,10.0,2.0
140,59.15731424148606,10.0,2.0
141,58.562306501548,10.0,2.0
142,62.3935758513932,10.0,2.0
143,61.93401702786376,10.0,2.0
144,61.300309597523224,10.0,2.0
145,57.56095201238389,10.0,2.0
146,58.81385448916409,10.0,2.0
147,55.524380804953566,10.0,2.0
148,60.642414860681114,10.0,2.0
149,58.6106811145511,10.0,2.0
150,60.95684984520125,10.0,2.0
151,57.25619195046439,10.0,2.0
152,61.48413312693498,10.0,2.0
153,61.14551083591333,10.0,2.0
154,61.058436532507756,10.0,2.0
155,60.92782507739939,10.0,2.0
156,57.14976780185759,10.0,2.0
157,53.91350619195046,10.0,2.0
158,62.379063467492244,10.0,2.0
159,60.37151702786378,10.0,2.0
160,57.35777863777089,10.0,2.0
161,60.52147832817337,10.0,2.0
162,58.83320433436532,10.0,2.0
163,61.36319659442725,10.0,2.0
164,60.52147832817337,10.0,2.0
165,60.74883900928791,10.0,2.0
166,56.33223684210528,10.0,2.0
167,57.58513931888545,10.0,2.0
168,54.595588235294116,10.0,2.0
169,59.77167182662539,10.0,2.0
170,58.305921052631575,10.0,2.0
171,58.61551857585138,10.0,2.0
172,62.93537151702785,10.0,2.0
173,60.45375386996904,10.0,2.0
174,60.158668730650156,10.0,2.0
175,61.21323529411765,10.0,2.0
176,60.2263931888545,10.0,2.0
177,57.846362229102155,10.0,2.0
178,61.629256965944265,10.0,2.0
179,53.13951238390092,10.0,2.0
180,56.91756965944272,10.0,2.0
181,55.32604489164086,10.0,2.0
182,60.41021671826625,10.0,2.0
183,58.910603715170275,10.0,2.0
184,60.995549535603715,10.0,2.0
185,62.732198142414866,10.0,2.0
186,57.42550309597523,10.0,2.0
187,58.397832817337466,10.0,2.0
188,53.47813467492261,10.0,2.0
189,64.74941950464397,10.0,2.0
190,56.612809597523224,10.0,2.0
191,62.36938854489164,10.0,2.0
192,60.94233746130032,10.0,2.0
193,59.9796826625387,10.0,2.0
194,59.86842105263157,10.0,2.0
195,56.39028637770898,10.0,2.0
196,63.602941176470566,10.0,2.0
197,58.639705882352935,10.0,2.0
198,62.02592879256966,10.0,2.0
199,57.30940402476779,10.0,2.0
200,57.24167956656346,10.0,2.0
201,61.242260061919495,10.0,2.0
202,57.14493034055727,10.0,2.0
203,59.79102167182663,10.0,2.0
204,61.07778637770898,10.0,2.0
205,60.67627708978328,10.0,2.0
206,59.87809597523219,10.0,2.0
207,56.62248452012384,10.0,2.0
208,55.01644736842106,10.0,2.0
209,55.82914086687306,10.0,2.0
210,55.12770897832817,10.0,2.0
211,59.12828947368421,10.0,2.0
212,61.909829721362236,10.0,2.0
213,55.05514705882353,10.0,2.0
214,60.1828560371517,10.0,2.0
215,59.191176470588225,10.0,2.0
216,62.0984907120743,10.0,2.0
217,61.01006191950464,10.0,2.0
218,61.52767027863778,10.0,2.0
219,57.14493034055728,10.0,2.0
220,57.464202786377705,10.0,2.0
221,58.87190402476781,10.0,2.0
222,55.0890092879257,10.0,2.0
223,58.50909442724458,10.0,2.0
224,56.961106811145505,10.0,2.0
225,60.100619195046434,10.0,2.0
226,57.0046439628483,10.0,2.0
227,56.075851393188856,10.0,2.0
228,61.04392414860681,10.0,2.0
229,59.38467492260061,10.0,2.0
230,58.16563467492261,10.0,2.0
231,63.52070433436532,10.0,2.0
232,58.79450464396285,10.0,2.0
233,59.181501547987615,10.0,2.0
234,59.80069659442725,10.0,2.0
235,63.9077012383901,10.0,2.0
236,61.334171826625386,10.0,2.0
237,56.743421052631575,10.0,2.0
238,59.84423374613004,10.0,2.0
239,58.15595975232198,10.0,2.0
240,57.140092879256976,10.0,2.0
241,59.12828947368421,10.0,2.0
242,58.14144736842106,10.0,2.0
243,60.90847523219814,10.0,2.0
244,60.323142414860676,10.0,2.0
245,59.553986068111456,10.0,2.0
246,62.95472136222911,10.0,2.0
247,56.17743808049536,10.0,2.0
248,59.15731424148607,10.0,2.0
249,61.04392414860681,10.0,2.0
250,58.79450464396285,10.0,2.0
251,57.33842879256966,10.0,2.0
252,56.680534055727556,10.0,2.0
253,59.80069659442725,10.0,2.0
254,59.418537151702786,10.0,2.0
255,59.737809597523224,10.0,2.0
256,60.66660216718265,10.0,2.0
257,58.528444272445824,10.0,2.0
258,59.79585913312694,10.0,2.0
259,57.991486068111456,10.0,2.0
260,57.25135448916408,10.0,2.0
261,59.433049535603715,10.0,2.0
262,60.652089783281745,10.0,2.0
263,61.48897058823529,10.0,2.0
264,56.62732198142415,10.0,2.0
265,58.035023219814256,10.0,2.0
266,59.389512383900936,10.0,2.0
267,63.81578947368421,10.0,2.0
268,56.71439628482973,10.0,2.0
269,58.89125386996904,10.0,2.0
270,61.551857585139324,10.0,2.0
271,57.73026315789475,10.0,2.0
272,61.57604489164086,10.0,2.0
273,58.57198142414861,10.0,2.0
274,59.54914860681115,10.0,2.0
275,61.426083591331285,10.0,2.0
276,61.764705882352935,10.0,2.0
277,58.45104489164086,10.0,2.0
278,56.743421052631575,10.0,2.0
279,68.07759287925695,10.0,2.0
280,60.86010061919505,10.0,2.0
281,59.61203560371517,10.0,2.0
282,60.77302631578947,10.0,2.0
283,59.21052631578947,10.0,2.0
284,58.48006965944272,10.0,2.0
285,65.34442724458204,10.0,2.0
286,57.44001547987616,10.0,2.0
287,56.58378482972135,10.0,2.0
288,56.25,10.0,2.0
289,59.824883900928796,10.0,2.0
290,58.494582043343655,10.0,2.0
291,58.0640479876161,10.0,2.0
292,54.503676470588225,10.0,2.0
293,58.886416408668715,10.0,2.0
294,56.77244582043343,10.0,2.0
295,62.732198142414866,10.0,2.0
296,59.79102167182663,10.0,2.0
297,60.768188854489175,10.0,2.0
298,57.125580495356026,10.0,2.0
299,59.71362229102167,10.0,2.0
300,58.16563467492262,10.0,2.0
301,60.27960526315789,10.0,2.0
302,55.24864551083592,10.0,2.0
303,57.86087461300309,10.0,2.0
304,59.27341331269351,10.0,2.0
305,60.13931888544892,10.0,2.0
306,53.033088235294116,10.0,2.0
307,60.893962848297214,10.0,2.0
308,59.68943498452012,10.0,2.0
309,57.362616099071204,10.0,2.0
310,60.429566563467496,10.0,2.0
311,57.32875386996904,10.0,2.0
312,58.50909442724458,10.0,2.0
313,58.528444272445824,10.0,2.0
314,59.94582043343653,10.0,2.0
315,58.19949690402477,10.0,2.0
316,57.831849845201255,10.0,2.0
317,59.1234520123839,10.0,2.0
318,61.57604489164086,10.0,2.0
319,57.02883126934985,10.0,2.0
320,55.596942724458195,10.0,2.0
321,53.216911764705884,10.0,2.0
322,55.10835913312695,10.0,2.0
323,55.73239164086687,10.0,2.0
324,60.487616099071204,10.0,2.0
325,56.78212074303407,10.0,2.0
326,61.798568111455104,10.0,2.0
327,56.661184210526315,10.0,2.0
328,60.07159442724458,10.0,2.0
329,59.075077399380795,10.0,2.0
330,59.95549535603715,10.0,2.0
331,60.80688854489164,10.0,2.0
332,55.06482198142414,10.0,2.0
333,59.200851393188856,10.0,2.0
334,55.69852941176471,10.0,2.0
335,58.90576625386996,10.0,2.0
336,60.574690402476776,10.0,2.0
337,62.42260061919505,10.0,2.0
338,60.211880804953566,10.0,2.0
339,58.65421826625387,10.0,2.0
340,57.78347523219815,10.0,2.0
341,56.6515092879257,10.0,2.0
342,55.02612229102167,10.0,2.0
343,62.635448916408684,10.0,2.0
344,58.112422600619205,10.0,2.0
345,59.7329721362229,10.0,2.0
346,56.951431888544896,10.0,2.0
347,57.13525541795666,10.0,2.0
348,54.29566563467493,10.0,2.0
349,57.319078947368425,10.0,2.0
350,57.1013931888545,10.0,2.0
351,60.77302631578947,10.0,2.0
352,58.562306501548,10.0,2.0
353,57.43517801857586,10.0,2.0
354,57.96729876160991,10.0,2.0
355,59.07507739938081,10.0,2.0
356,56.31288699690402,10.0,2.0
357,59.75232198142415,10.0,2.0
358,60.893962848297214,10.0,2.0
359,57.778637770897824,10.0,2.0
360,61.721168730650156,10.0,2.0
361,60.91331269349846,10.0,2.0
362,60.45375386996904,10.0,2.0
363,60.110294117647065,10.0,2.0
364,57.92859907120743,10.0,2.0
365,63.33204334365325,10.0,2.0
366,55.56791795665635,10.0,2.0
367,57.96729876160991,10.0,2.0
368,63.81578947368421,10.0,2.0
369,58.90092879256966,10.0,2.0
370,61.15034829721362,10.0,2.0
371,58.775154798761605,10.0,2.0
372,58.470394736842096,10.0,2.0
373,54.5859133126935,10.0,2.0
374,57.643188854489175,10.0,2.0
375,57.41099071207431,10.0,2.0
376,57.95762383900929,10.0,2.0
377,57.76412538699691,10.0,2.0
378,62.325851393188884,10.0,2.0
379,60.04256965944271,10.0,2.0
380,61.35835913312694,10.0,2.0
381,57.83184984520125,10.0,2.0
382,61.36803405572755,10.0,2.0
383,59.970007739938076,10.0,2.0
384,60.1731811145511,10.0,2.0
385,61.06327399380805,10.0,2.0
386,60.66660216718265,10.0,2.0
387,57.98664860681115,10.0,2.0
388,58.23819659442725,10.0,2.0
389,55.853328173374614,10.0,2.0
390,57.9624613003096,10.0,2.0
391,53.908668730650156,10.0,2.0
392,61.66795665634674,10.0,2.0
393,61.68246904024768,10.0,2.0
394,55.77109133126935,10.0,2.0
395,57.54160216718265,10.0,2.0
396,57.541602167182674,10.0,2.0
397,63.41428018575851,10.0,2.0
398,58.122097523219814,10.0,2.0
399,56.83049535603715,10.0,2.0
400,60.28928018575851,10.0,2.0
401,62.417763157894726,10.0,2.0
402,61.27612229102167,10.0,2.0
403,57.02399380804954,10.0,2.0
404,57.73026315789475,10.0,2.0
405,59.5249613003096,10.0,2.0
406,57.0578560371517,10.0,2.0
407,62.819272445820424,10.0,2.0
408,61.37770897832817,10.0,2.0
409,54.653637770897824,10.0,2.0
410,62.08397832817338,10.0,2.0
411,57.67705108359133,10.0,2.0
412,59.49109907120743,10.0,2.0
413,60.80688854489164,10.0,2.0
414,64.5607585139319,10.0,2.0
415,60.71981424148606,10.0,2.0
416,63.109520123839005,10.0,2.0
417,55.93556501547988,10.0,2.0
418,55.70336687306502,10.0,2.0
419,57.29972910216718,10.0,2.0
420,52.04140866873065,10.0,2.0
421,65.218653250774,10.0,2.0
422,59.87809597523219,10.0,2.0
423,59.10410216718265,10.0,2.0
424,58.28657120743034,10.0,2.0
425,59.11377708978328,10.0,2.0
426,58.789667182662534,10.0,2.0
427,62.62577399380804,10.0,2.0
428,62.291989164086715,10.0,2.0
429,59.558823529411775,10.0,2.0
430,60.91331269349846,10.0,2.0
431,61.62925696594428,10.0,2.0
432,57.57546439628485,10.0,2.0
433,60.26509287925696,10.0,2.0
434,62.243614551083596,10.0,2.0
435,59.38467492260061,10.0,2.0
436,58.27689628482973,10.0,2.0
437,62.0404411764706,10.0,2.0
438,56.71923374613003,10.0,2.0
439,61.6486068111455,10.0,2.0
440,60.110294117647065,10.0,2.0
441,54.65363777089782,10.0,2.0
442,57.78831269349845,10.0,2.0
443,60.444078947368425,10.0,2.0
444,59.53947368421053,10.0,2.0
445,62.630611455108365,10.0,2.0
446,60.86977554179568,10.0,2.0
447,60.06191950464397,10.0,2.0
448,56.24032507739939,10.0,2.0
449,54.63428792569659,10.0,2.0
450,56.03715170278639,10.0,2.0
451,59.04605263157895,10.0,2.0
452,55.27767027863777,10.0,2.0
453,60.91331269349846,10.0,2.0
454,65.73626160990712,10.0,2.0
455,56.91273219814242,10.0,2.0
456,57.096555727554176,10.0,2.0
457,56.7579334365325,10.0,2.0
458,60.879450464396285,10.0,2.0
459,57.47871517027863,10.0,2.0
460,60.19253095975232,10.0,2.0
461,61.445433436532504,10.0,2.0
462,54.36339009287925,10.0,2.0
463,55.616292569659436,10.0,2.0
464,58.81869195046439,10.0,2.0
465,58.39299535603715,10.0,2.0
466,60.54566563467493,10.0,2.0
467,58.422020123839005,10.0,2.0
468,56.3999613003096,10.0,2.0
469,60.221555727554176,10.0,2.0
470,59.41369969040248,10.0,2.0
471,58.58165634674923,10.0,2.0
472,61.140673374613,10.0,2.0
473,59.71845975232198,10.0,2.0
474,57.79315015479875,10.0,2.0
475,57.40615325077399,10.0,2.0
476,60.56017801857586,10.0,2.0
477,57.41582817337461,10.0,2.0
478,59.82972136222911,10.0,2.0
479,54.76973684210525,10.0,2.0
480,60.1828560371517,10.0,2.0
481,58.59616873065015,10.0,2.0
482,59.21536377708978,10.0,2.0
483,56.675696594427244,10.0,2.0
484,60.04740712074304,10.0,2.0
485,64.07701238390094,10.0,2.0
486,61.09713622291022,10.0,2.0
487,54.81327399380805,10.0,2.0
488,56.52573529411765,10.0,2.0
489,58.68324303405573,10.0,2.0
490,55.92105263157895,10.0,2.0
491,55.7420665634675,10.0,2.0
492,58.73645510835914,10.0,2.0
493,60.39086687306502,10.0,2.0
494,57.89473684210525,10.0,2.0
495,60.74883900928793,10.0,2.0
496,62.12267801857586,10.0,2.0
497,60.187693498452006,10.0,2.0
498,58.07856037151703,10.0,2.0
499,59.568498452012385,10.0,2.0
500,57.85119969040248,10.0,2.0
501,59.099264705882355,10.0,2.0
502,59.5830108359133,10.0,2.0
503,58.34462074303407,10.0,2.0
504,56.59345975232197,10.0,2.0
505,58.397832817337466,10.0,2.0
506,60.79237616099071,10.0,2.0
507,61.556695046439636,10.0,2.0
508,57.68672600619195,10.0,2.0
509,54.29082817337461,10.0,2.0
510,58.34462074303405,10.0,2.0
511,54.880998452012385,10.0,2.0
512,57.88506191950464,10.0,2.0
513,56.341911764705884,10.0,2.0
514,58.43653250773993,10.0,2.0
515,56.293537151702786,10.0,2.0
516,57.91408668730651,10.0,2.0
517,56.158088235294116,10.0,2.0
518,58.15595975232198,10.0,2.0
519,60.81172600619196,10.0,2.0
520,58.49941950464397,10.0,2.0
521,59.27825077399382,10.0,2.0
522,56.18227554179568,10.0,2.0
523,56.864357585139324,10.0,2.0
524,57.80766253869968,10.0,2.0
525,61.35352167182662,10.0,2.0
526,59.76683436532507,10.0,2.0
527,59.573335913312704,10.0,2.0
528,57.45936532507739,10.0,2.0
529,61.072948916408656,10.0,2.0
530,57.10623065015481,10.0,2.0
531,57.44001547987616,10.0,2.0
532,57.86087461300309,10.0,2.0
533,58.591331269349844,10.0,2.0
534,58.262383900928796,10.0,2.0
535,56.15325077399382,10.0,2.0
536,58.881578947368425,10.0,2.0
537,59.92647058823529,10.0,2.0
538,60.64725232198142,10.0,2.0
539,60.19736842105264,10.0,2.0
540,58.649380804953566,10.0,2.0
541,60.26025541795666,10.0,2.0
542,59.06056501547987,10.0,2.0
543,56.835332817337466,10.0,2.0
544,62.22426470588234,10.0,2.0
545,57.04334365325077,10.0,2.0
546,51.199690402476776,10.0,2.0
547,58.28657120743034,10.0,2.0
548,56.36126160990711,10.0,2.0
549,59.694272445820424,10.0,2.0
550,62.17589009287925,10.0,2.0
551,61.36319659442725,10.0,2.0
552,62.127515479876145,10.0,2.0
553,57.14976780185758,10.0,2.0
554,60.2312306501548,10.0,2.0
555,57.39647832817337,10.0,2.0
556,55.12770897832818,10.0,2.0
557,64.03831269349845,10.0,2.0
558,59.1234520123839,10.0,2.0
559,59.674922600619205,10.0,2.0
560,61.39222136222909,10.0,2.0
561,57.56578947368421,10.0,2.0
562,62.24845201238389,10.0,2.0
563,64.27534829721363,10.0,2.0
564,60.95684984520122,10.0,2.0
565,59.33630030959753,10.0,2.0
566,54.92453560371517,10.0,2.0
567,59.67492260061919,10.0,2.0
568,60.637577399380795,10.0,2.0
569,58.28173374613003,10.0,2.0
570,62.11300309597523,10.0,2.0
571,62.35487616099073,10.0,2.0
572,57.63835139318885,10.0,2.0
573,60.618227554179576,10.0,2.0
574,62.456462848297214,10.0,2.0
575,62.200077399380795,10.0,2.0
576,56.92724458204334,10.0,2.0
577,59.22020123839009,10.0,2.0
578,55.514705882352956,10.0,2.0
579,61.09713622291022,10.0,2.0
580,60.187693498452006,10.0,2.0
581,59.03637770897833,10.0,2.0
582,62.949883900928796,10.0,2.0
583,59.84423374613003,10.0,2.0
584,62.02109133126935,10.0,2.0
585,57.111068111455104,10.0,2.0
586,57.36745356037152,10.0,2.0
587,59.25406346749226,10.0,2.0
588,65.3734520123839,10.0,2.0
589,59.452399380804955,10.0,2.0
590,55.287345201238395,10.0,2.0
591,61.70665634674921,10.0,2.0
592,56.84017027863777,10.0,2.0
593,55.340557275541805,10.0,2.0
594,59.15731424148606,10.0,2.0
595,62.39841331269351,10.0,2.0
596,59.824883900928796,10.0,2.0
597,60.87461300309598,10.0,2.0
598,58.06404798761611,10.0,2.0
599,55.8968653250774,10.0,2.0
600,55.67917956656347,10.0,2.0
601,55.43246904024768,10.0,2.0
602,55.790441176470594,10.0,2.0
603,59.42337461300309,10.0,2.0
604,56.81114551083592,10.0,2.0
605,57.454527863777095,10.0,2.0
606,57.73510061919505,10.0,2.0
607,58.94446594427245,10.0,2.0
608,57.65286377708978,10.0,2.0
609,57.48355263157895,10.0,2.0
610,60.57952786377707,10.0,2.0
611,57.48839009287926,10.0,2.0
612,59.71845975232198,10.0,2.0
613,62.78057275541796,10.0,2.0
614,57.077205882352935,10.0,2.0
615,60.51664086687306,10.0,2.0
616,58.70259287925696,10.0,2.0
617,60.60855263157895,10.0,2.0
618,61.84210526315789,10.0,2.0
619,61.774380804953545,10.0,2.0
620,55.55824303405573,10.0,2.0
621,53.44910990712074,10.0,2.0
622,60.77786377708978,10.0,2.0
623,57.41099071207431,10.0,2.0
624,57.90924922600618,10.0,2.0
625,58.717105263157904,10.0,2.0
626,58.58649380804954,10.0,2.0
627,61.2906346749226,10.0,2.0
628,52.63641640866873,10.0,2.0
629,60.26025541795666,10.0,2.0
630,63.93188854489164,10.0,2.0
631,55.98393962848298,10.0,2.0
632,55.06482198142415,10.0,2.0
633,60.284442724458195,10.0,2.0
634,56.48703560371517,10.0,2.0
635,61.813080495356026,10.0,2.0
636,62.21942724458204,10.0,2.0
637,55.23897058823529,10.0,2.0
638,63.19659442724458,10.0,2.0
639,59.14763931888545,10.0,2.0
640,54.00058049535603,10.0,2.0
641,61.082623839009294,10.0,2.0
642,59.355650154798745,10.0,2.0
643,57.00948142414861,10.0,2.0
644,59.04121517027865,10.0,2.0
645,63.303018575851404,10.0,2.0
646,60.8310758513932,10.0,2.0
647,60.64725232198142,10.0,2.0
648,58.659055727554176,10.0,2.0
649,55.61145510835914,10.0,2.0
650,55.68401702786378,10.0,2.0
651,56.907894736842096,10.0,2.0
652,61.687306501548,10.0,2.0
653,54.91969814241486,10.0,2.0
654,64.6188080495356,10.0,2.0
655,58.41718266253869,10.0,2.0
656,60.43440402476779,10.0,2.0
657,56.43866099071208,10.0,2.0
658,67.34229876160991,10.0,2.0
659,59.442724458204324,10.0,2.0
660,56.52573529411765,10.0,2.0
661,51.97368421052632,10.0,2.0
662,58.422020123839005,10.0,2.0
663,59.59268575851393,10.0,2.0
664,58.97832817337461,10.0,2.0
665,60.27476780185759,10.0,2.0
666,57.83668730650154,10.0,2.0
667,61.537345201238395,10.0,2.0
668,62.61609907120744,10.0,2.0
669,53.279798761609925,10.0,2.0
670,58.0205108359133,10.0,2.0
671,56.45801083591331,10.0,2.0
672,56.86919504643963,10.0,2.0
673,55.05998452012384,10.0,2.0
674,59.868421052631575,10.0,2.0
675,61.74535603715169,10.0,2.0
676,55.093846749225996,10.0,2.0
677,62.10816563467493,10.0,2.0
678,54.934210526315795,10.0,2.0
679,58.8186919504644,10.0,2.0
680,59.49109907120743,10.0,2.0
681,57.13525541795666,10.0,2.0
682,56.341911764705884,10.0,2.0
683,61.992066563467496,10.0,2.0
684,60.79237616099071,10.0,2.0
685,55.73722910216718,10.0,2.0
686,60.565015479876145,10.0,2.0
687,52.87828947368421,10.0,2.0
688,62.89667182662539,10.0,2.0
689,60.26993034055727,10.0,2.0
690,60.67627708978328,10.0,2.0
691,57.130417956656345,10.0,2.0
692,60.429566563467496,10.0,2.0
693,60.74883900928793,10.0,2.0
694,54.80843653250774,10.0,2.0
695,56.1000386996904,10.0,2.0
696,64.39144736842107,10.0,2.0
697,57.58513931888545,10.0,2.0
698,58.66389318885447,10.0,2.0
699,57.24167956656347,10.0,2.0
700,58.8719040247678,10.0,2.0
701,62.620936532507756,10.0,2.0
702,61.98239164086687,10.0,2.0
703,56.99496904024768,10.0,2.0
704,59.84423374613003,10.0,2.0
705,58.48974458204334,10.0,2.0
706,56.77244582043343,10.0,2.0
707,60.090944272445824,10.0,2.0
708,61.0390866873065,10.0,2.0
709,60.01838235294117,10.0,2.0
710,64.45433436532507,10.0,2.0
711,60.38602941176472,10.0,2.0
712,54.95356037151703,10.0,2.0
713,60.59404024767802,10.0,2.0
714,59.31211300309597,10.0,2.0
715,57.33842879256967,10.0,2.0
716,58.717105263157904,10.0,2.0
717,58.422020123839005,10.0,2.0
718,55.77592879256966,10.0,2.0
719,61.00522445820432,10.0,2.0
720,58.117260061919495,10.0,2.0
721,59.631385448916404,10.0,2.0
722,60.82140092879256,10.0,2.0
723,55.640479876160995,10.0,2.0
724,58.513931888544896,10.0,2.0
725,55.55340557275542,10.0,2.0
726,57.42066563467493,10.0,2.0
727,58.054373065015476,10.0,2.0
728,54.4311145510836,10.0,2.0
729,59.04121517027863,10.0,2.0
730,60.008707430340564,10.0,2.0
731,56.06133900928792,10.0,2.0
732,59.68943498452012,10.0,2.0
733,56.191950464396285,10.0,2.0
734,58.654218266253864,10.0,2.0
735,55.76625386996904,10.0,2.0
736,55.77109133126935,10.0,2.0
737,57.78831269349846,10.0,2.0
738,56.71923374613003,10.0,2.0
739,59.35565015479875,10.0,2.0
740,56.051664086687296,10.0,2.0
741,57.09171826625387,10.0,2.0
742,56.72407120743034,10.0,2.0
743,59.452399380804955,10.0,2.0
744,60.10545665634674,10.0,2.0
745,57.18363003095976,10.0,2.0
746,57.02883126934985,10.0,2.0
747,56.00328947368421,10.0,2.0
748,59.65073529411765,10.0,2.0
749,56.709558823529406,10.0,2.0
750,62.14686532507738,10.0,2.0
751,60.8891253869969,10.0,2.0
752,55.534055727554176,10.0,2.0
753,53.782894736842096,10.0,2.0
754,57.933436532507756,10.0,2.0
755,61.1455108359133,10.0,2.0
756,55.964589783281724,10.0,2.0
757,56.646671826625386,10.0,2.0
758,59.23955108359133,10.0,2.0
759,59.70394736842106,10.0,2.0
760,56.09036377708978,10.0,2.0
761,54.95356037151702,10.0,2.0
762,57.657701238390075,10.0,2.0
763,60.26509287925696,10.0,2.0
764,58.97832817337461,10.0,2.0
765,63.28850619195046,10.0,2.0
766,56.786958204334354,10.0,2.0
767,57.5561145510836,10.0,2.0
768,65.69756191950464,10.0,2.0
769,54.629450464396285,10.0,2.0
770,57.77380030959754,10.0,2.0
771,54.9438854489164,10.0,2.0
772,55.224458204334354,10.0,2.0
773,60.057082043343655,10.0,2.0
774,56.69504643962848,10.0,2.0
775,60.845588235294116,10.0,2.0
776,59.14763931888545,10.0,2.0
777,61.808243034055735,10.0,2.0
778,60.16834365325077,10.0,2.0
779,55.99845201238389,10.0,2.0
780,57.14976780185758,10.0,2.0
781,57.86571207430342,10.0,2.0
782,59.433049535603715,10.0,2.0
783,60.70046439628483,10.0,2.0
784,60.50696594427245,10.0,2.0
785,61.6921439628483,10.0,2.0
786,60.845588235294116,10.0,2.0
787,59.026702786377705,10.0,2.0
788,56.49671052631579,10.0,2.0
789,58.054373065015476,10.0,2.0
790,62.432275541795654,10.0,2.0
791,56.79179566563467,10.0,2.0
792,58.99767801857586,10.0,2.0
793,61.619582043343655,10.0,2.0
794,57.58030185758514,10.0,2.0
795,62.1468653250774,10.0,2.0
796,57.54643962848297,10.0,2.0
797,56.58378482972137,10.0,2.0
798,59.68943498452013,10.0,2.0
799,59.868421052631575,10.0,2.0
800,59.026702786377705,10.0,2.0
801,59.544311145510825,10.0,2.0
802,52.767027863777095,10.0,2.0
803,56.81114551083592,10.0,2.0
804,55.863003095975216,10.0,2.0
805,56.89338235294117,10.0,2.0
806,62.54837461300309,10.0,2.0
807,54.57140092879257,10.0,2.0
808,54.85197368421053,10.0,2.0
809,58.925116099071204,10.0,2.0
810,63.883513931888544,10.0,2.0
811,61.20356037151702,10.0,2.0
812,57.07236842105264,10.0,2.0
813,59.83455882352943,10.0,2.0
814,59.92647058823529,10.0,2.0
815,57.541602167182674,10.0,2.0
816,61.222910216718255,10.0,2.0
817,59.4233746130031,10.0,2.0
818,59.771671826625386,10.0,2.0
819,54.52302631578946,10.0,2.0
820,60.66660216718265,10.0,2.0
821,56.075851393188856,10.0,2.0
822,55.06482198142415,10.0,2.0
823,58.35913312693498,10.0,2.0
824,59.29760061919505,10.0,2.0
825,55.10835913312694,10.0,2.0
826,61.585719814241465,10.0,2.0
827,59.14280185758514,10.0,2.0
828,56.47736068111456,10.0,2.0
829,58.15112229102167,10.0,2.0
830,59.970007739938076,10.0,2.0
831,55.950077399380795,10.0,2.0
832,59.99419504643963,10.0,2.0
833,54.861648606811144,10.0,2.0
834,54.60526315789475,10.0,2.0
835,57.90924922600618,10.0,2.0
836,60.855263157894726,10.0,2.0
837,60.92298761609908,10.0,2.0
838,59.10410216718265,10.0,2.0
839,59.442724458204324,10.0,2.0
840,55.35506965944272,10.0,2.0
841,60.255417956656345,10.0,2.0
842,59.8829334365325,10.0,2.0
843,57.73026315789475,10.0,2.0
844,59.31211300309597,10.0,2.0
845,60.236068111455104,10.0,2.0
846,56.293537151702786,10.0,2.0
847,60.12964396284831,10.0,2.0
848,56.08552631578947,10.0,2.0
849,61.23258513931889,10.0,2.0
850,61.1455108359133,10.0,2.0
851,64.0673374613003,10.0,2.0
852,62.035603715170275,10.0,2.0
853,52.1671826625387,10.0,2.0
854,59.645897832817326,10.0,2.0
855,61.40189628482973,10.0,2.0
856,64.78811919504643,10.0,2.0
857,55.635642414860676,10.0,2.0
858,58.122097523219814,10.0,2.0
859,58.23335913312694,10.0,2.0
860,61.50832043343653,10.0,2.0
861,54.82294891640867,10.0,2.0
862,61.01973684210525,10.0,2.0
863,65.23316563467493,10.0,2.0
864,61.82275541795666,10.0,2.0
865,61.55669504643962,10.0,2.0
866,54.75038699690403,10.0,2.0
867,55.11803405572755,10.0,2.0
868,58.10274767801858,10.0,2.0
869,56.191950464396285,10.0,2.0
870,56.01780185758514,10.0,2.0
871,61.7356811145511,10.0,2.0
872,58.005998452012385,10.0,2.0
873,57.49322755417956,10.0,2.0
874,55.10352167182663,10.0,2.0
875,60.47310371517027,10.0,2.0
876,58.67840557275542,10.0,2.0
877,59.341137770897824,10.0,2.0
878,57.033668730650156,10.0,2.0
879,55.006772445820424,10.0,2.0
880,60.59404024767802,10.0,2.0
881,63.23045665634675,10.0,2.0
882,61.76954334365326,10.0,2.0
883,57.37229102167183,10.0,2.0
884,58.18498452012383,10.0,2.0
885,63.45781733746131,10.0,2.0
886,59.27341331269349,10.0,2.0
887,62.06462848297213,10.0,2.0
888,59.35565015479875,10.0,2.0
889,58.82352941176471,10.0,2.0
890,63.03212074303407,10.0,2.0
891,56.24999999999999,10.0,2.0
892,61.51315789473684,10.0,2.0
893,59.96517027863778,10.0,2.0
894,59.181501547987615,10.0,2.0
895,61.06327399380805,10.0,2.0
896,57.633513931888544,10.0,2.0
897,64.19794891640865,10.0,2.0
898,58.33494582043343,10.0,2.0
899,59.21052631578946,10.0,2.0
900,63.09984520123838,10.0,2.0
901,63.03695820433436,10.0,2.0
902,51.359326625387,10.0,2.0
903,53.487809597523224,10.0,2.0
904,62.6015866873065,10.0,2.0
905,56.51122291021672,10.0,2.0
906,59.75715944272446,10.0,2.0
907,55.12287151702785,10.0,2.0
908,57.512577399380795,10.0,2.0
909,57.720588235294116,10.0,2.0
910,59.31211300309597,10.0,2.0
911,62.26296439628483,10.0,2.0
912,58.93962848297213,10.0,2.0
913,57.87538699690403,10.0,2.0
914,56.071013931888544,10.0,2.0
915,60.255417956656345,10.0,2.0
916,60.8891253869969,10.0,2.0
917,63.23045665634677,10.0,2.0
918,61.68246904024768,10.0,2.0
919,58.61068111455108,10.0,2.0
920,62.766060371517035,10.0,2.0
921,63.98026315789475,10.0,2.0
922,56.559597523219814,10.0,2.0
923,56.25000000000001,10.0,2.0
924,56.11938854489164,10.0,2.0
925,62.57256191950464,10.0,2.0
926,56.68537151702785,10.0,2.0
927,53.89899380804954,10.0,2.0
928,61.18904798761611,10.0,2.0
929,58.639705882352935,10.0,2.0
930,57.74961300309598,10.0,2.0
931,57.449690402476776,10.0,2.0
932,58.49941950464397,10.0,2.0
933,57.72542569659442,10.0,2.0
934,63.390092879256976,10.0,2.0
935,60.45859133126935,10.0,2.0
936,60.80688854489164,10.0,2.0
937,58.068885448916404,10.0,2.0
938,59.14280185758514,10.0,2.0
939,63.82546439628483,10.0,2.0
940,55.86784055727554,10.0,2.0
941,54.44078947368421,10.0,2.0
942,60.91331269349846,10.0,2.0
943,59.11377708978328,10.0,2.0
944,58.46555727554179,10.0,2.0
945,60.64725232198142,10.0,2.0
946,59.529798761609925,10.0,2.0
947,59.43788699690403,10.0,2.0
948,56.5015479876161,10.0,2.0
949,62.31133900928793,10.0,2.0
950,61.66795665634675,10.0,2.0
951,58.83320433436533,10.0,2.0
952,59.66041021671828,10.0,2.0
953,58.55263157894736,10.0,2.0
954,58.60100619195046,10.0,2.0
955,60.439241486068106,10.0,2.0
956,51.34481424148606,10.0,2.0
957,59.573335913312704,10.0,2.0
958,64.0189628482972,10.0,2.0
959,57.352941176470594,10.0,2.0
960,57.14493034055727,10.0,2.0
961,59.40886222910218,10.0,2.0
962,55.23413312693498,10.0,2.0
963,59.95065789473685,10.0,2.0
964,59.30243808049536,10.0,2.0
965,57.720588235294116,10.0,2.0
966,59.0218653250774,10.0,2.0
967,64.1592492260062,10.0,2.0
968,57.58997678018578,10.0,2.0
969,57.13525541795666,10.0,2.0
970,57.904411764705884,10.0,2.0
971,60.62306501547988,10.0,2.0
972,57.062693498452006,10.0,2.0
973,57.57062693498453,10.0,2.0
974,58.122097523219814,10.0,2.0
975,56.428986068111456,10.0,2.0
976,55.65982972136223,10.0,2.0
977,56.051664086687296,10.0,2.0
978,55.640479876160995,10.0,2.0
979,59.62171052631579,10.0,2.0
980,60.158668730650156,10.0,2.0
981,58.79450464396285,10.0,2.0
982,59.079914860681114,10.0,2.0
983,56.743421052631575,10.0,2.0
984,61.40673374613004,10.0,2.0
985,60.415054179566546,10.0,2.0
986,61.83243034055727,10.0,2.0
987,57.7641253869969,10.0,2.0
988,59.97968266253869,10.0,2.0
989,61.464783281733745,10.0,2.0
990,55.55340557275542,10.0,2.0
991,56.94659442724458,10.0,2.0
992,57.64802631578947,10.0,2.0
993,58.70259287925696,10.0,2.0
994,57.619001547987615,10.0,2.0
995,60.81656346749226,10.0,2.0
996,53.2217492260062,10.0,2.0
997,59.52012383900929,10.0,2.0
998,54.05863003095976,10.0,2.0
999,61.8953173374613,10.0,2.0
1000,61.571207430340564,10.0,2.0
1001,60.83591331269351,10.0,2.0
1002,64.1060371517028,10.0,2.0
1003,59.17182662538699,10.0,2.0
1004,60.734326625387,10.0,2.0
1005,58.446207430340564,10.0,2.0
1006,59.36048761609907,10.0,2.0
1007,53.89415634674922,10.0,2.0
1008,61.81308049535603,10.0,2.0
1009,56.080688854489175,10.0,2.0
1010,56.38544891640867,10.0,2.0
1011,59.76683436532507,10.0,2.0
1012,55.85332817337461,10.0,2.0
1013,59.31211300309598,10.0,2.0
1014,59.25890092879257,10.0,2.0
1015,54.5327012383901,10.0,2.0
1016,61.33417182662539,10.0,2.0
1017,59.549148606811144,10.0,2.0
1018,58.91544117647057,10.0,2.0
1019,58.57681888544892,10.0,2.0
1020,56.81114551083591,10.0,2.0
1021,59.316950464396285,10.0,2.0
1022,56.76760835913314,10.0,2.0
1023,57.84152476780186,10.0,2.0
1024,56.520897832817326,10.0,2.0
1025,60.279605263157904,10.0,2.0
1026,60.14899380804954,10.0,2.0
1027,57.37229102167182,10.0,2.0
1028,58.58649380804954,10.0,2.0
1029,63.20626934984519,10.0,2.0
1030,57.16911764705883,10.0,2.0
1031,59.660410216718276,10.0,2.0
1032,59.54914860681115,10.0,2.0
1033,62.809597523219814,10.0,2.0
1034,60.284442724458195,10.0,2.0
1035,56.37577399380804,10.0,2.0
1036,59.53947368421054,10.0,2.0
1037,59.732972136222905,10.0,2.0
1038,58.862229102167184,10.0,2.0
1039,57.18363003095976,10.0,2.0
1040,57.01431888544893,10.0,2.0
1041,61.459945820433425,10.0,2.0
1042,57.60932662538701,10.0,2.0
1043,55.548568111455104,10.0,2.0
1044,59.089589783281724,10.0,2.0
1045,60.26509287925696,10.0,2.0
1046,54.80843653250774,10.0,2.0
1047,61.08262383900929,10.0,2.0
1048,58.28657120743034,10.0,2.0
1049,61.47445820433436,10.0,2.0
1050,61.57604489164086,10.0,2.0
1051,59.83455882352943,10.0,2.0
1052,55.24864551083592,10.0,2.0
1053,59.04605263157895,10.0,2.0
1054,54.919698142414866,10.0,2.0
1055,62.57739938080493,10.0,2.0
1056,57.256191950464384,10.0,2.0
1057,64.73490712074305,10.0,2.0
1058,54.70684984520125,10.0,2.0
1059,63.66582817337459,10.0,2.0
1060,59.66524767801858,10.0,2.0
1061,56.64667182662539,10.0,2.0
1062,54.71168730650155,10.0,2.0
1063,56.79663312693498,10.0,2.0
1064,58.789667182662534,10.0,2.0
1065,61.03908668730651,10.0,2.0
1066,62.29198916408669,10.0,2.0
1067,57.11590557275542,10.0,2.0
1068,60.09578173374613,10.0,2.0
1069,60.74883900928793,10.0,2.0
1070,56.341911764705884,10.0,2.0
1071,58.55263157894736,10.0,2.0
1072,60.87461300309598,10.0,2.0
1073,58.60100619195046,10.0,2.0
1074,58.97832817337461,10.0,2.0
1075,59.089589783281724,10.0,2.0
1076,59.196013931888544,10.0,2.0
1077,55.408281733746136,10.0,2.0
1078,59.64589783281735,10.0,2.0
1079,60.20704334365325,10.0,2.0
1080,60.52147832817338,10.0,2.0
1081,60.71497678018576,10.0,2.0
1082,61.116486068111456,10.0,2.0
1083,57.16428018575851,10.0,2.0
1084,60.5843653250774,10.0,2.0
1085,66.49574303405572,10.0,2.0
1086,56.59345975232198,10.0,2.0
1087,56.49187306501549,10.0,2.0
1088,62.27747678018576,10.0,2.0
1089,60.80688854489164,10.0,2.0
1090,55.954914860681114,10.0,2.0
1091,60.076431888544896,10.0,2.0
1092,61.450270897832816,10.0,2.0
1093,58.60584365325078,10.0,2.0
1094,58.243034055727556,10.0,2.0
1095,57.89957430340557,10.0,2.0
1096,57.86087461300309,10.0,2.0
1097,58.83320433436533,10.0,2.0
1098,57.95762383900929,10.0,2.0
1099,58.180147058823536,10.0,2.0
1100,57.40615325077399,10.0,2.0
1101,60.487616099071204,10.0,2.0
1102,58.33010835913313,10.0,2.0
1103,59.35081269349845,10.0,2.0
1104,58.41718266253869,10.0,2.0
1105,59.05572755417958,10.0,2.0
1106,57.26102941176471,10.0,2.0
1107,55.55824303405573,10.0,2.0
1108,59.03154024767802,10.0,2.0
1109,62.693498452012356,10.0,2.0
1110,54.93421052631579,10.0,2.0
1111,59.970007739938076,10.0,2.0
1112,58.82836687306502,10.0,2.0
1113,55.57275541795666,10.0,2.0
1114,57.64802631578946,10.0,2.0
1115,54.45530185758514,10.0,2.0
1116,57.57546439628482,10.0,2.0
1117,55.887190402476776,10.0,2.0
1118,60.94717492260061,10.0,2.0
1119,56.81114551083589,10.0,2.0
1120,57.628676470588225,10.0,2.0
1121,62.379063467492244,10.0,2.0
1122,66.20549535603715,10.0,2.0
1123,57.68672600619195,10.0,2.0
1124,59.05089009287926,10.0,2.0
1125,55.0890092879257,10.0,2.0
1126,61.17453560371515,10.0,2.0
1127,59.974845201238395,10.0,2.0
1128,57.55127708978328,10.0,2.0
1129,59.079914860681114,10.0,2.0
1130,56.54508513931889,10.0,2.0
1131,65.82817337461299,10.0,2.0
1132,57.80282507739939,10.0,2.0
1133,56.89821981424149,10.0,2.0
1134,59.70394736842105,10.0,2.0
1135,58.36397058823529,10.0,2.0
1136,60.03773219814242,10.0,2.0
1137,56.743421052631575,10.0,2.0
1138,60.88428792569659,10.0,2.0
1139,57.81250000000001,10.0,2.0
1140,58.23819659442725,10.0,2.0
1141,55.534055727554176,10.0,2.0
1142,60.7875386996904,10.0,2.0
1143,56.73858359133127,10.0,2.0
1144,58.523606811145505,10.0,2.0
1145,57.56578947368421,10.0,2.0
1146,54.89067337461299,10.0,2.0
1147,54.402089783281724,10.0,2.0
1148,57.93827399380805,10.0,2.0
1149,55.964589783281724,10.0,2.0
1150,56.48703560371517,10.0,2.0
1151,52.863777089783284,10.0,2.0
1152,60.62790247678018,10.0,2.0
1153,61.2906346749226,10.0,2.0
1154,59.408862229102155,10.0,2.0
1155,57.12558049535603,10.0,2.0
1156,59.14763931888545,10.0,2.0
1157,61.56153250773993,10.0,2.0
1158,56.02263931888545,10.0,2.0
1159,57.00464396284831,10.0,2.0
1160,55.46149380804954,10.0,2.0
1161,55.388931888544896,10.0,2.0
1162,62.38390092879256,10.0,2.0
1163,58.60584365325077,10.0,2.0
1164,55.43246904024768,10.0,2.0
1165,60.63757739938081,10.0,2.0
1166,60.83591331269349,10.0,2.0
1167,56.81114551083592,10.0,2.0
1168,58.296246130030966,10.0,2.0
1169,57.66253869969041,10.0,2.0
1170,56.951431888544896,10.0,2.0
1171,54.04411764705882,10.0,2.0
1172,58.571981424148596,10.0,2.0
1173,60.54566563467493,10.0,2.0
1174,62.330688854489175,10.0,2.0
1175,52.13332043343653,10.0,2.0
1176,58.15595975232198,10.0,2.0
1177,58.68808049535603,10.0,2.0
1178,61.885642414860676,10.0,2.0
1179,53.46845975232198,10.0,2.0
1180,61.26644736842104,10.0,2.0
1181,63.07082043343653,10.0,2.0
1182,61.242260061919495,10.0,2.0
1183,58.8670665634675,10.0,2.0
1184,59.16698916408669,10.0,2.0
1185,60.903637770897824,10.0,2.0
1186,60.11996904024768,10.0,2.0
1187,55.800116099071204,10.0,2.0
1188,59.92647058823529,10.0,2.0
1189,55.654992260061924,10.0,2.0
1190,61.663119195046455,10.0,2.0
1191,57.86571207430342,10.0,2.0
1192,59.09926470588235,10.0,2.0
1193,61.522832817337466,10.0,2.0
1194,55.118034055727556,10.0,2.0
1195,59.16215170278638,10.0,2.0
1196,60.13448142414861,10.0,2.0
1197,59.03154024767802,10.0,2.0
1198,64.10119969040248,10.0,2.0
1199,59.747484520123855,10.0,2.0
1200,59.53947368421053,10.0,2.0
1201,59.534636222910216,10.0,2.0
1202,60.879450464396285,10.0,2.0
1203,59.931308049535616,10.0,2.0
1204,54.76006191950465,10.0,2.0
1205,56.18711300309598,10.0,2.0
1206,57.14493034055727,10.0,2.0
1207,58.47523219814242,10.0,2.0
1208,62.44195046439628,10.0,2.0
1209,58.407507739938076,10.0,2.0
1210,57.56095201238389,10.0,2.0
1211,53.216911764705884,10.0,2.0
1212,61.30514705882353,10.0,2.0
1213,60.71013931888545,10.0,2.0
1214,61.52767027863778,10.0,2.0
1215,58.04953560371517,10.0,2.0
1216,61.01973684210525,10.0,2.0
1217,60.56501547987617,10.0,2.0
1218,60.63273993808049,10.0,2.0
1219,58.89125386996904,10.0,2.0
1220,59.48142414860681,10.0,2.0
1221,59.13796439628483,10.0,2.0
1222,58.28657120743034,10.0,2.0
1223,53.420085139318886,10.0,2.0
1224,57.996323529411775,10.0,2.0
1225,56.985294117647065,10.0,2.0
1226,62.50000000000002,10.0,2.0
1227,60.41989164086687,10.0,2.0
1228,62.75154798761609,10.0,2.0
1229,58.82352941176471,10.0,2.0
1230,53.84578173374613,10.0,2.0
1231,63.22078173374613,10.0,2.0
1232,61.92917956656346,10.0,2.0
1233,62.533862229102176,10.0,2.0
1234,58.431695046439636,10.0,2.0
1235,55.42763157894736,10.0,2.0
1236,58.55746904024768,10.0,2.0
1237,60.86493808049536,10.0,2.0
1238,65.31540247678018,10.0,2.0
1239,56.93208204334365,10.0,2.0
1240,58.122097523219814,10.0,2.0
1241,60.826238390092875,10.0,2.0
1242,52.85893962848297,10.0,2.0
1243,58.50909442724458,10.0,2.0
1244,59.616873065015476,10.0,2.0
1245,58.89609133126935,10.0,2.0
1246,63.54489164086687,10.0,2.0
1247,59.191176470588225,10.0,2.0
1248,63.9657507739938,10.0,2.0
1249,61.01489938080495,10.0,2.0
1250,57.85119969040248,10.0,2.0
1251,56.54508513931889,10.0,2.0
1252,58.15112229102168,10.0,2.0
1253,63.9077012383901,10.0,2.0
1254,60.07643188854488,10.0,2.0
1255,60.79721362229102,10.0,2.0
1256,59.56366099071207,10.0,2.0
1257,56.90789473684211,10.0,2.0
1258,60.40537925696593,10.0,2.0
1259,60.60855263157895,10.0,2.0
1260,61.51799535603715,10.0,2.0
1261,59.868421052631575,10.0,2.0
1262,63.49651702786378,10.0,2.0
1263,56.78212074303407,10.0,2.0
1264,61.029411764705884,10.0,2.0
1265,57.856037151702786,10.0,2.0
1266,56.94659442724458,10.0,2.0
1267,58.296246130030966,10.0,2.0
1268,61.130998452012385,10.0,2.0
1269,61.44059597523219,10.0,2.0
1270,57.26586687306502,10.0,2.0
1271,62.27747678018574,10.0,2.0
1272,59.408862229102155,10.0,2.0
1273,64.28502321981425,10.0,2.0
1274,59.10410216718265,10.0,2.0
1275,57.536764705882355,10.0,2.0
1276,58.760642414860676,10.0,2.0
1277,56.79663312693498,10.0,2.0
1278,59.31211300309598,10.0,2.0
1279,58.14144736842106,10.0,2.0
1280,60.47310371517027,10.0,2.0
1281,57.63351393188856,10.0,2.0
1282,57.89957430340557,10.0,2.0
1283,59.35565015479875,10.0,2.0
1284,55.790441176470594,10.0,2.0
1285,58.33010835913313,10.0,2.0
1286,58.199496904024755,10.0,2.0
1287,60.681114551083596,10.0,2.0
1288,56.30321207430341,10.0,2.0
1289,58.750967492260045,10.0,2.0
1290,54.7890866873065,10.0,2.0
1291,60.734326625387,10.0,2.0
1292,63.336880804953566,10.0,2.0
1293,60.11996904024768,10.0,2.0
1294,57.077205882352935,10.0,2.0
1295,62.24845201238389,10.0,2.0
1296,59.442724458204324,10.0,2.0
1297,61.5421826625387,10.0,2.0
1298,56.59345975232198,10.0,2.0
1299,61.76954334365326,10.0,2.0
1300,59.17666408668732,10.0,2.0
1301,61.35835913312694,10.0,2.0
1302,64.51238390092878,10.0,2.0
1303,63.53037925696593,10.0,2.0
1304,53.013738390092875,10.0,2.0
1305,59.02186532507741,10.0,2.0
1306,59.57333591331268,10.0,2.0
1307,57.449690402476776,10.0,2.0
1308,55.13254643962847,10.0,2.0
1309,54.49883900928792,10.0,2.0
1310,57.90924922600618,10.0,2.0
1311,51.45607585139319,10.0,2.0
1312,57.00464396284831,10.0,2.0
1313,55.650154798761605,10.0,2.0
1314,58.19949690402477,10.0,2.0
1315,59.85390866873065,10.0,2.0
1316,58.523606811145505,10.0,2.0
1317,61.193885448916404,10.0,2.0
1318,56.99013157894736,10.0,2.0
1319,55.035797213622295,10.0,2.0
1320,58.34945820433436,10.0,2.0
1321,62.91118421052632,10.0,2.0
1322,60.01838235294117,10.0,2.0
1323,58.90576625386996,10.0,2.0
1324,60.04740712074304,10.0,2.0
1325,57.29489164086687,10.0,2.0
1326,55.3937693498452,10.0,2.0
1327,62.32101393188856,10.0,2.0
1328,56.598297213622295,10.0,2.0
1329,61.58571981424149,10.0,2.0
1330,58.484907120743024,10.0,2.0
1331,57.24651702786378,10.0,2.0
1332,58.721942724458195,10.0,2.0
1333,56.72890866873065,10.0,2.0
1334,60.26993034055727,10.0,2.0
1335,55.92589009287926,10.0,2.0
1336,58.29624613003096,10.0,2.0
1337,58.73645510835914,10.0,2.0
1338,55.80495356037153,10.0,2.0
1339,63.59810371517027,10.0,2.0
1340,63.07082043343653,10.0,2.0
1341,56.59345975232198,10.0,2.0
1342,61.556695046439636,10.0,2.0
1343,58.29140866873066,10.0,2.0
1344,55.988777089783284,10.0,2.0
1345,60.77786377708978,10.0,2.0
1346,59.53947368421053,10.0,2.0
1347,57.754450464396285,10.0,2.0
1348,54.58591331269349,10.0,2.0
1349,60.26993034055727,10.0,2.0
1350,53.35236068111456,10.0,2.0
1351,57.17395510835912,10.0,2.0
1352,58.65421826625387,10.0,2.0
1353,53.937693498452006,10.0,2.0
1354,54.566563467492244,10.0,2.0
1355,57.086880804953566,10.0,2.0
1356,62.882159442724465,10.0,2.0
1357,63.24980650154797,10.0,2.0
1358,57.78831269349845,10.0,2.0
1359,57.86571207430342,10.0,2.0
1360,63.83997678018576,10.0,2.0
1361,60.55050309597523,10.0,2.0
1362,54.324690402476776,10.0,2.0
1363,57.53192724458204,10.0,2.0
1364,59.14763931888545,10.0,2.0
1365,55.398606811145505,10.0,2.0
1366,59.63622291021672,10.0,2.0
1367,54.5859133126935,10.0,2.0
1368,60.19736842105264,10.0,2.0
1369,60.56017801857586,10.0,2.0
1370,57.889899380804955,10.0,2.0
1371,57.01431888544892,10.0,2.0
1372,59.50077399380805,10.0,2.0
1373,56.283862229102176,10.0,2.0
1374,59.41369969040248,10.0,2.0
1375,59.10893962848297,10.0,2.0
1376,60.115131578947384,10.0,2.0
1377,59.597523219814256,10.0,2.0
1378,60.9858746130031,10.0,2.0
1379,56.86919504643963,10.0,2.0
1380,59.984520123839,10.0,2.0
1381,61.784055727554176,10.0,2.0
1382,56.54024767801858,10.0,2.0
1383,58.67840557275542,10.0,2.0
1384,60.51664086687306,10.0,2.0
1385,54.89067337461299,10.0,2.0
1386,59.307275541795676,10.0,2.0
1387,61.6921439628483,10.0,2.0
1388,60.96168730650154,10.0,2.0
1389,55.41795665634675,10.0,2.0
1390,57.98181114551085,10.0,2.0
1391,59.80553405572755,10.0,2.0
1392,58.79450464396285,10.0,2.0
1393,56.951431888544896,10.0,2.0
1394,58.94930340557275,10.0,2.0
1395,60.802051083591316,10.0,2.0
1396,60.45375386996904,10.0,2.0
1397,62.964396284829704,10.0,2.0
1398,60.60855263157895,10.0,2.0
1399,60.73432662538697,10.0,2.0
1400,60.816563467492244,10.0,2.0
1401,60.211880804953566,10.0,2.0
1402,55.20510835913314,10.0,2.0
1403,57.469040247678,10.0,2.0
1404,58.01567337461303,10.0,2.0
1405,60.92298761609907,10.0,2.0
1406,62.848297213622295,10.0,2.0
1407,54.755224458204324,10.0,2.0
1408,55.466331269349844,10.0,2.0
1409,60.42472910216718,10.0,2.0
1410,61.31965944272446,10.0,2.0
1411,55.838815789473685,10.0,2.0
1412,56.071013931888544,10.0,2.0
1413,59.616873065015476,10.0,2.0
1414,58.122097523219814,10.0,2.0
1415,56.31288699690402,10.0,2.0
1416,58.886416408668715,10.0,2.0
1417,58.5671439628483,10.0,2.0
1418,61.95336687306502,10.0,2.0
1419,55.62596749226007,10.0,2.0
1420,56.69020897832817,10.0,2.0
1421,56.42898606811144,10.0,2.0
1422,60.94717492260061,10.0,2.0
1423,59.61203560371517,10.0,2.0
1424,56.661184210526294,10.0,2.0
1425,61.14551083591333,10.0,2.0
1426,59.408862229102176,10.0,2.0
1427,58.19949690402477,10.0,2.0
1428,56.569272445820424,10.0,2.0
1429,53.15402476780186,10.0,2.0
1430,60.71497678018576,10.0,2.0
1431,61.68246904024768,10.0,2.0
1432,60.01838235294117,10.0,2.0
1433,60.473103715170275,10.0,2.0
1434,62.993421052631575,10.0,2.0
1435,56.269349845201226,10.0,2.0
1436,56.1484133126935,10.0,2.0
1437,59.568498452012385,10.0,2.0
1438,60.92298761609907,10.0,2.0
1439,60.46826625386996,10.0,2.0
1440,59.39918730650155,10.0,2.0
1441,59.331462848297214,10.0,2.0
1442,58.85739164086687,10.0,2.0
1443,58.82352941176471,10.0,2.0
1444,55.23413312693498,10.0,2.0
1445,58.20433436532508,10.0,2.0
1446,59.2202012383901,10.0,2.0
1447,60.60855263157895,10.0,2.0
1448,60.23123065015481,10.0,2.0
1449,58.601006191950454,10.0,2.0
1450,60.27476780185759,10.0,2.0
1451,60.057082043343655,10.0,2.0
1452,57.091718266253864,10.0,2.0
1453,61.52767027863777,10.0,2.0
1454,62.40808823529413,10.0,2.0
1455,56.78212074303405,10.0,2.0
1456,61.0922987616099,10.0,2.0
1457,58.436532507739926,10.0,2.0
1458,58.407507739938076,10.0,2.0
1459,60.99071207430341,10.0,2.0
1460,62.08881578947368,10.0,2.0
1461,58.55746904024768,10.0,2.0
1462,55.93556501547987,10.0,2.0
1463,58.968653250774004,10.0,2.0
1464,61.83726780185759,10.0,2.0
1465,56.2016253869969,10.0,2.0
1466,60.879450464396285,10.0,2.0
1467,60.047407120743024,10.0,2.0
1468,54.290828173374614,10.0,2.0
1469,55.42763157894736,10.0,2.0
1470,55.92589009287926,10.0,2.0
1471,56.13873839009289,10.0,2.0
1472,60.27476780185759,10.0,2.0
1473,56.82565789473684,10.0,2.0
1474,57.52225232198143,10.0,2.0
1475,57.89473684210525,10.0,2.0
1476,61.16486068111455,10.0,2.0
1477,58.33010835913314,10.0,2.0
1478,58.760642414860676,10.0,2.0
1479,58.57681888544892,10.0,2.0
1480,59.89744582043343,10.0,2.0
1481,56.63699690402477,10.0,2.0
1482,58.90576625386997,10.0,2.0
1483,56.36609907120743,10.0,2.0
1484,60.3328173374613,10.0,2.0
1485,59.191176470588246,10.0,2.0
1486,61.784055727554176,10.0,2.0
1487,59.81037151702787,10.0,2.0
1488,61.84210526315789,10.0,2.0
1489,55.466331269349844,10.0,2.0
1490,59.4233746130031,10.0,2.0
1491,57.028831269349844,10.0,2.0
1492,53.00406346749226,10.0,2.0
1493,55.76141640866873,10.0,2.0
1494,60.06191950464397,10.0,2.0
1495,62.558049535603715,10.0,2.0
1496,59.45723684210525,10.0,2.0
1497,54.54237616099071,10.0,2.0
1498,52.78637770897833,10.0,2.0
1499,59.89744582043343,10.0,2.0
1500,60.88428792569658,10.0,2.0
1501,56.27902476780186,10.0,2.0
1502,54.8422987616099,10.0,2.0
1503,62.0984907120743,10.0,2.0
1504,55.80979102167183,10.0,2.0
1505,54.57140092879257,10.0,2.0
1506,59.723297213622295,10.0,2.0
1507,58.2140092879257,10.0,2.0
1508,58.43653250773993,10.0,2.0
1509,60.1731811145511,10.0,2.0
1510,60.99071207430341,10.0,2.0
1511,55.80495356037152,10.0,2.0
1512,56.94175696594428,10.0,2.0
1513,60.71013931888544,10.0,2.0
1514,59.95549535603715,10.0,2.0
1515,53.9328560371517,10.0,2.0
1516,60.265092879256976,10.0,2.0
1517,59.84423374613004,10.0,2.0
1518,58.446207430340564,10.0,2.0
1519,61.65828173374613,10.0,2.0
1520,64.4204721362229,10.0,2.0
1521,61.005224458204346,10.0,2.0
1522,55.90654024767802,10.0,2.0
1523,57.67705108359133,10.0,2.0
1524,58.779992260061924,10.0,2.0
1525,60.42472910216718,10.0,2.0
1526,60.032894736842096,10.0,2.0
1527,61.445433436532504,10.0,2.0
1528,54.00058049535603,10.0,2.0
1529,61.49380804953559,10.0,2.0
1530,61.29547213622293,10.0,2.0
1531,59.24922600619194,10.0,2.0
1532,57.202979876160995,10.0,2.0
1533,57.8125,10.0,2.0
1534,58.33978328173375,10.0,2.0
1535,57.967298761609925,10.0,2.0
1536,58.63003095975233,10.0,2.0
1537,62.683823529411775,10.0,2.0
1538,57.83668730650154,10.0,2.0
1539,55.95975232198143,10.0,2.0
1540,61.46962074303407,10.0,2.0
1541,54.30534055727554,10.0,2.0
1542,56.25967492260061,10.0,2.0
1543,54.87616099071207,10.0,2.0
1544,58.18498452012384,10.0,2.0
1545,55.09868421052632,10.0,2.0
1546,58.968653250774004,10.0,2.0
1547,58.70743034055727,10.0,2.0
1548,56.10487616099073,10.0,2.0
1549,60.39086687306502,10.0,2.0
1550,54.98258513931889,10.0,2.0
1551,57.23200464396285,10.0,2.0
1552,53.033088235294116,10.0,2.0
1553,61.49864551083591,10.0,2.0
1554,61.56636996904025,10.0,2.0
1555,58.29140866873064,10.0,2.0
1556,53.69582043343653,10.0,2.0
1557,59.43788699690403,10.0,2.0
1558,57.42066563467493,10.0,2.0
1559,58.11242260061921,10.0,2.0
1560,60.410216718266255,10.0,2.0
1561,59.82004643962848,10.0,2.0
1562,59.16698916408669,10.0,2.0
1563,56.27902476780186,10.0,2.0
1564,63.215944272445824,10.0,2.0
1565,56.64667182662539,10.0,2.0
1566,59.18633900928792,10.0,2.0
1567,60.70046439628483,10.0,2.0
1568,63.06598297213623,10.0,2.0
1569,57.88506191950464,10.0,2.0
1570,56.545085139318886,10.0,2.0
1571,57.08204334365325,10.0,2.0
1572,59.433049535603715,10.0,2.0
1573,58.27689628482973,10.0,2.0
1574,55.577592879256976,10.0,2.0
1575,58.46071981424149,10.0,2.0
1576,56.44833591331268,10.0,2.0
1577,62.224264705882355,10.0,2.0
1578,57.319078947368425,10.0,2.0
1579,57.83668730650154,10.0,2.0
1580,64.81714396284828,10.0,2.0
1581,59.684597523219814,10.0,2.0
1582,58.92995356037152,10.0,2.0
1583,61.57604489164086,10.0,2.0
1584,58.22852167182663,10.0,2.0
1585,55.83881578947368,10.0,2.0
1586,57.23200464396285,10.0,2.0
1587,52.931501547987615,10.0,2.0
1588,58.14628482972135,10.0,2.0
1589,59.81520897832817,10.0,2.0
1590,58.6106811145511,10.0,2.0
1591,54.71652476780186,10.0,2.0
1592,62.591911764705884,10.0,2.0
1593,56.21130030959753,10.0,2.0
1594,49.76780185758514,10.0,2.0
1595,56.80147058823529,10.0,2.0
1596,59.984520123839005,10.0,2.0
1597,60.26509287925696,10.0,2.0
1598,60.134481424148596,10.0,2.0
1599,58.05921052631579,10.0,2.0
1600,58.639705882352956,10.0,2.0
1601,55.190595975232185,10.0,2.0
1602,57.507739938080505,10.0,2.0
1603,58.083397832817326,10.0,2.0
1604,61.5421826625387,10.0,2.0
1605,63.07565789473684,10.0,2.0
1606,56.04682662538699,10.0,2.0
1607,62.093653250774004,10.0,2.0
1608,57.217492260061924,10.0,2.0
1609,59.737809597523224,10.0,2.0
1610,60.80688854489164,10.0,2.0
1611,56.79663312693498,10.0,2.0
1612,61.98722910216718,10.0,2.0
1613,60.236068111455104,10.0,2.0
1614,61.41640866873065,10.0,2.0
1615,56.69020897832817,10.0,2.0
1616,52.409055727554176,10.0,2.0
1617,54.20859133126935,10.0,2.0
1618,63.31753095975232,10.0,2.0
1619,61.595394736842096,10.0,2.0
1620,60.93266253869968,10.0,2.0
1621,62.12267801857586,10.0,2.0
1622,60.095781733746136,10.0,2.0
1623,63.24496904024767,10.0,2.0
1624,59.27825077399382,10.0,2.0
1625,57.111068111455104,10.0,2.0
1626,60.27960526315789,10.0,2.0
1627,60.01838235294117,10.0,2.0
1628,58.86222910216718,10.0,2.0
1629,54.387577399380795,10.0,2.0
1630,58.61551857585139,10.0,2.0
1631,59.93614551083591,10.0,2.0
1632,57.96729876160991,10.0,2.0
1633,58.87674148606811,10.0,2.0
1634,60.086106811145505,10.0,2.0
1635,63.09984520123838,10.0,2.0
1636,53.47813467492261,10.0,2.0
1637,58.28657120743034,10.0,2.0
1638,58.010835913312704,10.0,2.0
1639,52.467105263157904,10.0,2.0
1640,59.12828947368421,10.0,2.0
1641,54.81327399380805,10.0,2.0
1642,59.64589783281735,10.0,2.0
1643,60.158668730650156,10.0,2.0
1644,58.50909442724458,10.0,2.0
1645,64.40112229102168,10.0,2.0
1646,55.185758513931894,10.0,2.0
1647,58.47523219814241,10.0,2.0
1648,61.45510835913313,10.0,2.0
1649,60.29895510835914,10.0,2.0
1650,53.840944272445824,10.0,2.0
1651,56.08552631578947,10.0,2.0
1652,62.466137770897824,10.0,2.0
1653,57.68672600619194,10.0,2.0
1654,55.403444272445824,10.0,2.0
1655,58.24787151702788,10.0,2.0
1656,63.63680340557274,10.0,2.0
1657,57.05785603715171,10.0,2.0
1658,53.20723684210525,10.0,2.0
1659,57.894736842105274,10.0,2.0
1660,60.71497678018578,10.0,2.0
1661,60.56017801857586,10.0,2.0
1662,60.0764318885449,10.0,2.0
1663,57.07236842105264,10.0,2.0
1664,59.55398606811144,10.0,2.0
1665,57.628676470588225,10.0,2.0
1666,55.80495356037152,10.0,2.0
1667,58.160797213622295,10.0,2.0
1668,55.80979102167183,10.0,2.0
1669,60.02321981424149,10.0,2.0
1670,59.491099071207415,10.0,2.0
1671,57.73993808049535,10.0,2.0
1672,57.062693498452006,10.0,2.0
1673,60.40537925696593,10.0,2.0
1674,62.040441176470594,10.0,2.0
1675,62.52902476780185,10.0,2.0
1676,58.25754643962848,10.0,2.0
1677,59.81520897832817,10.0,2.0
1678,54.77457430340557,10.0,2.0
1679,60.88912538699691,10.0,2.0
1680,56.63699690402477,10.0,2.0
1681,59.21052631578946,10.0,2.0
1682,59.181501547987615,10.0,2.0
1683,63.41911764705882,10.0,2.0
1684,60.36184210526318,10.0,2.0
1685,53.59423374613003,10.0,2.0
1686,55.93556501547988,10.0,2.0
1687,54.43595201238389,10.0,2.0
1688,59.74748452012384,10.0,2.0
1689,60.095781733746136,10.0,2.0
1690,60.439241486068106,10.0,2.0
1691,60.71013931888544,10.0,2.0
1692,61.12616099071207,10.0,2.0
1693,62.325851393188856,10.0,2.0
1694,57.23200464396285,10.0,2.0
1695,60.26993034055728,10.0,2.0
1696,61.83243034055728,10.0,2.0
1697,55.98393962848298,10.0,2.0
1698,61.65828173374613,10.0,2.0
1699,56.38544891640867,10.0,2.0
1700,56.95143188854488,10.0,2.0
1701,63.37558049535603,10.0,2.0
1702,59.10410216718265,10.0,2.0
1703,62.29682662538697,10.0,2.0
1704,59.65073529411765,10.0,2.0
1705,60.0715944272446,10.0,2.0
1706,60.36184210526318,10.0,2.0
1707,62.437113003096,10.0,2.0
1708,65.12674148606814,10.0,2.0
1709,55.538893188854495,10.0,2.0
1710,63.540054179566546,10.0,2.0
1711,58.639705882352935,10.0,2.0
1712,56.99496904024768,10.0,2.0
1713,59.834558823529406,10.0,2.0
1714,59.51528637770897,10.0,2.0
1715,59.075077399380795,10.0,2.0
1716,63.75290247678021,10.0,2.0
1717,59.22987616099071,10.0,2.0
1718,58.01083591331268,10.0,2.0
1719,60.75851393188853,10.0,2.0
1720,58.044698142414866,10.0,2.0
1721,54.56172600619195,10.0,2.0
1722,56.77244582043346,10.0,2.0
1723,62.25328947368421,10.0,2.0
1724,55.57275541795666,10.0,2.0
1725,60.91331269349846,10.0,2.0
1726,58.775154798761605,10.0,2.0
1727,60.666602167182674,10.0,2.0
1728,58.69291795665635,10.0,2.0
1729,57.425503095975245,10.0,2.0
1730,55.640479876161,10.0,2.0
1731,61.179373065015476,10.0,2.0
1732,56.27418730650155,10.0,2.0
1733,56.308049535603715,10.0,2.0
1734,59.85390866873065,10.0,2.0
1735,58.94446594427245,10.0,2.0
1736,64.6236455108359,10.0,2.0
1737,59.08475232198142,10.0,2.0
1738,61.35352167182663,10.0,2.0
1739,60.16350619195046,10.0,2.0
1740,63.6029411764706,10.0,2.0
1741,60.100619195046455,10.0,2.0
1742,58.72678018575851,10.0,2.0
1743,58.422020123839,10.0,2.0
1744,57.60932662538701,10.0,2.0
1745,59.075077399380795,10.0,2.0
1746,56.59345975232198,10.0,2.0
1747,58.07372291021672,10.0,2.0
1748,60.06675696594428,10.0,2.0
1749,57.77380030959753,10.0,2.0
1750,60.94233746130032,10.0,2.0
1751,60.81172600619195,10.0,2.0
1752,58.0205108359133,10.0,2.0
1753,57.12558049535605,10.0,2.0
1754,56.20162538699691,10.0,2.0
1755,57.48839009287926,10.0,2.0
1756,64.43498452012382,10.0,2.0
1757,61.619582043343655,10.0,2.0
1758,59.433049535603715,10.0,2.0
1759,57.85119969040248,10.0,2.0
1760,57.01431888544892,10.0,2.0
1761,56.961106811145505,10.0,2.0
1762,59.49109907120743,10.0,2.0
1763,55.37441950464397,10.0,2.0
1764,56.19678792569659,10.0,2.0
1765,55.8484907120743,10.0,2.0
1766,57.657701238390075,10.0,2.0
1767,62.25812693498453,10.0,2.0
1768,55.974264705882355,10.0,2.0
1769,63.01277089783282,10.0,2.0
1770,54.80359907120743,10.0,2.0
1771,60.82140092879256,10.0,2.0
1772,58.07856037151703,10.0,2.0
1773,56.380611455108365,10.0,2.0
1774,56.94175696594427,10.0,2.0
1775,58.402670278637764,10.0,2.0
1776,54.11667956656346,10.0,2.0
1777,59.9796826625387,10.0,2.0
1778,59.544311145510825,10.0,2.0
1779,53.47813467492261,10.0,2.0
1780,61.32449690402477,10.0,2.0
1781,59.14280185758514,10.0,2.0
1782,58.818691950464384,10.0,2.0
1783,57.793150154798745,10.0,2.0
1784,62.31133900928791,10.0,2.0
1785,56.14841331269349,10.0,2.0
1786,57.02399380804954,10.0,2.0
1787,58.34462074303407,10.0,2.0
1788,56.90305727554181,10.0,2.0
1789,59.80069659442725,10.0,2.0
1790,53.09113777089782,10.0,2.0
1791,58.57681888544892,10.0,2.0
1792,55.466331269349844,10.0,2.0
1793,52.046246130030966,10.0,2.0
1794,60.27476780185759,10.0,2.0
1795,60.67143962848298,10.0,2.0
1796,52.43324303405572,10.0,2.0
1797,54.22310371517027,10.0,2.0
1798,55.30669504643962,10.0,2.0
1799,61.85178018575851,10.0,2.0
1800,55.60178018575852,10.0,2.0
1801,59.11377708978328,10.0,2.0
1802,55.26799535603715,10.0,2.0
1803,53.758707430340564,10.0,2.0
1804,57.14493034055727,10.0,2.0
1805,57.720588235294116,10.0,2.0
1806,59.157314241486084,10.0,2.0
1807,58.847716718266255,10.0,2.0
1808,56.01780185758514,10.0,2.0
1809,55.93072755417956,10.0,2.0
1810,59.157314241486084,10.0,2.0
1811,61.42124613003096,10.0,2.0
1812,60.531153250774004,10.0,2.0
1813,56.332236842105274,10.0,2.0
1814,58.38332043343653,10.0,2.0
1815,58.910603715170275,10.0,2.0
1816,59.13796439628485,10.0,2.0
1817,62.24845201238389,10.0,2.0
1818,58.571981424148596,10.0,2.0
1819,56.53057275541796,10.0,2.0
1820,60.98587461300309,10.0,2.0
1821,60.48277863777089,10.0,2.0
1822,57.37712848297215,10.0,2.0
1823,57.93827399380805,10.0,2.0
1824,55.829140866873075,10.0,2.0
1825,61.5421826625387,10.0,2.0
1826,57.69640092879257,10.0,2.0
1827,59.47174922600618,10.0,2.0
1828,61.48897058823529,10.0,2.0
1829,59.53463622291022,10.0,2.0
1830,57.202979876161,10.0,2.0
1831,56.961106811145505,10.0,2.0
1832,61.38254643962848,10.0,2.0
1833,58.160797213622295,10.0,2.0
1834,60.323142414860676,10.0,2.0
1835,63.45781733746129,10.0,2.0
1836,54.73587461300309,10.0,2.0
1837,59.29760061919505,10.0,2.0
1838,57.69640092879256,10.0,2.0
1839,60.83591331269349,10.0,2.0
1840,58.45104489164086,10.0,2.0
1841,60.202205882352956,10.0,2.0
1842,61.41157120743034,10.0,2.0
1843,64.78328173374612,10.0,2.0
1844,59.684597523219814,10.0,2.0
1845,61.00522445820432,10.0,2.0
1846,53.46362229102167,10.0,2.0
1847,62.582236842105274,10.0,2.0
1848,61.048761609907125,10.0,2.0
1849,59.13796439628483,10.0,2.0
1850,55.89202786377707,10.0,2.0
1851,56.98045665634675,10.0,2.0
1852,60.8407507739938,10.0,2.0
1853,58.692917956656345,10.0,2.0
1854,55.19059597523219,10.0,2.0
1855,62.1420278637771,10.0,2.0
1856,58.615518575851404,10.0,2.0
1857,62.11300309597523,10.0,2.0
1858,58.94446594427245,10.0,2.0
1859,60.13931888544892,10.0,2.0
1860,59.65073529411765,10.0,2.0
1861,57.30940402476781,10.0,2.0
1862,60.56985294117647,10.0,2.0
1863,59.29276315789475,10.0,2.0
1864,59.43788699690402,10.0,2.0
1865,57.15460526315789,10.0,2.0
1866,62.85797213622293,10.0,2.0
1867,61.4938080495356,10.0,2.0
1868,57.72542569659443,10.0,2.0
1869,59.44756191950464,10.0,2.0
1870,57.41099071207431,10.0,2.0
1871,56.985294117647044,10.0,2.0
1872,64.74458204334366,10.0,2.0
1873,55.650154798761605,10.0,2.0
1874,60.59887770897835,10.0,2.0
1875,58.654218266253864,10.0,2.0
1876,55.16157120743034,10.0,2.0
1877,57.9140866873065,10.0,2.0
1878,63.50135448916409,10.0,2.0
1879,58.523606811145505,10.0,2.0
1880,61.95820433436532,10.0,2.0
1881,61.46962074303407,10.0,2.0
1882,57.7641253869969,10.0,2.0
1883,61.15518575851394,10.0,2.0
1884,56.47736068111456,10.0,2.0
1885,61.058436532507756,10.0,2.0
1886,59.69427244582044,10.0,2.0
1887,59.558823529411775,10.0,2.0
1888,52.84442724458204,10.0,2.0
1889,56.38061145510836,10.0,2.0
1890,59.466911764705884,10.0,2.0
1891,59.834558823529406,10.0,2.0
1892,59.67976006191951,10.0,2.0
1893,58.92995356037152,10.0,2.0
1894,62.19040247678018,10.0,2.0
1895,61.430921052631575,10.0,2.0
1896,61.34868421052632,10.0,2.0
1897,63.46265479876162,10.0,2.0
1898,55.69369195046441,10.0,2.0
1899,59.79102167182663,10.0,2.0
1900,59.670085139318886,10.0,2.0
1901,58.15112229102167,10.0,2.0
1902,58.45588235294118,10.0,2.0
1903,52.45743034055728,10.0,2.0
1904,55.58243034055728,10.0,2.0
1905,57.986648606811144,10.0,2.0
1906,56.69020897832817,10.0,2.0
1907,56.28869969040247,10.0,2.0
1908,58.397832817337466,10.0,2.0
1909,56.559597523219814,10.0,2.0
1910,61.50348297213623,10.0,2.0
1911,59.761996904024784,10.0,2.0
1912,56.748258513931894,10.0,2.0
1913,54.721362229102176,10.0,2.0
1914,56.72407120743034,10.0,2.0
1915,55.654992260061924,10.0,2.0
1916,57.14493034055727,10.0,2.0
1917,61.817917956656345,10.0,2.0
1918,66.1280959752322,10.0,2.0
1919,53.91834365325078,10.0,2.0
1920,56.598297213622295,10.0,2.0
1921,55.37925696594427,10.0,2.0
1922,51.86242260061919,10.0,2.0
1923,57.38196594427245,10.0,2.0
1924,61.106811145510825,10.0,2.0
1925,57.46904024767802,10.0,2.0
1926,59.62171052631579,10.0,2.0
1927,60.71013931888544,10.0,2.0
1928,57.314241486068106,10.0,2.0
1929,59.3266253869969,10.0,2.0
1930,54.70201238390093,10.0,2.0
1931,61.92434210526318,10.0,2.0
1932,62.432275541795654,10.0,2.0
1933,55.17124613003096,10.0,2.0
1934,57.638351393188856,10.0,2.0
1935,57.26586687306502,10.0,2.0
1936,61.05359907120743,10.0,2.0
1937,59.089589783281724,10.0,2.0
1938,61.716331269349844,10.0,2.0
1939,58.72678018575851,10.0,2.0
1940,59.45239938080494,10.0,2.0
1941,56.28869969040248,10.0,2.0
1942,60.26509287925696,10.0,2.0
1943,62.659636222910216,10.0,2.0
1944,58.22852167182663,10.0,2.0
1945,57.348103715170275,10.0,2.0
1946,59.47174922600618,10.0,2.0
1947,56.506385448916404,10.0,2.0
1948,55.20510835913313,10.0,2.0
1949,60.39570433436532,10.0,2.0
1950,59.77167182662539,10.0,2.0
1951,61.60506965944274,10.0,2.0
1952,64.66718266253872,10.0,2.0
1953,57.79798761609907,10.0,2.0
1954,57.338428792569644,10.0,2.0
1955,59.466911764705884,10.0,2.0
1956,55.13254643962848,10.0,2.0
1957,58.765479876160995,10.0,2.0
1958,53.94736842105264,10.0,2.0
1959,58.33494582043343,10.0,2.0
1960,57.894736842105274,10.0,2.0
1961,59.35081269349845,10.0,2.0
1962,59.22987616099071,10.0,2.0
1963,58.90576625386996,10.0,2.0
1964,59.34597523219815,10.0,2.0
1965,58.33010835913313,10.0,2.0
1966,59.4233746130031,10.0,2.0
1967,58.088235294117645,10.0,2.0
1968,57.25135448916409,10.0,2.0
1969,57.24651702786378,10.0,2.0
1970,53.94736842105264,10.0,2.0
1971,56.33223684210525,10.0,2.0
1972,59.01702786377707,10.0,2.0
1973,60.66660216718265,10.0,2.0
1974,57.20781733746131,10.0,2.0
1975,60.63273993808049,10.0,2.0
1976,61.72600619195046,10.0,2.0
1977,61.15518575851394,10.0,2.0
1978,61.99690402476779,10.0,2.0
1979,61.12616099071209,10.0,2.0
1980,58.296246130030966,10.0,2.0
1981,61.31482198142415,10.0,2.0
1982,59.79102167182663,10.0,2.0
1983,57.933436532507756,10.0,2.0
1984,58.523606811145505,10.0,2.0
1985,56.874032507739926,10.0,2.0
1986,59.4717492260062,10.0,2.0
1987,61.07778637770898,10.0,2.0
1988,64.10603715170278,10.0,2.0
1989,55.81462848297215,10.0,2.0
1990,55.863003095975216,10.0,2.0
1991,60.487616099071204,10.0,2.0
1992,55.24864551083592,10.0,2.0
1993,59.47174922600618,10.0,2.0
1994,61.55185758513933,10.0,2.0
1995,59.321787925696604,10.0,2.0
1996,61.140673374613,10.0,2.0
1997,59.76683436532507,10.0,2.0
1998,60.52147832817337,10.0,2.0
1999,57.88506191950464,10.0,2.0
2000,57.159442724458195,10.0,2.0
2001,63.63680340557274,10.0,2.0
2002,63.82062693498454,10.0,2.0
2003,60.03773219814242,10.0,2.0
2004,58.199496904024784,10.0,2.0
2005,57.904411764705884,10.0,2.0
2006,56.98045665634675,10.0,2.0
2007,57.01915634674923,10.0,2.0
2008,56.80147058823529,10.0,2.0
2009,55.118034055727556,10.0,2.0
2010,59.7329721362229,10.0,2.0
2011,63.59810371517027,10.0,2.0
2012,54.77457430340557,10.0,2.0
2013,57.47871517027865,10.0,2.0
2014,55.23897058823529,10.0,2.0
2015,58.05437306501547,10.0,2.0
2016,61.0874613003096,10.0,2.0
2017,63.53521671826625,10.0,2.0
2018,63.45781733746131,10.0,2.0
2019,58.97832817337461,10.0,2.0
2020,59.316950464396285,10.0,2.0
2021,54.44078947368421,10.0,2.0
2022,60.178018575851404,10.0,2.0
2023,62.325851393188856,10.0,2.0
2024,57.74961300309597,10.0,2.0
2025,58.03986068111456,10.0,2.0
2026,56.370936532507756,10.0,2.0
2027,59.92163312693498,10.0,2.0
2028,58.53328173374613,10.0,2.0
2029,58.446207430340564,10.0,2.0
2030,57.556114551083596,10.0,2.0
2031,55.70336687306502,10.0,2.0
2032,59.92647058823528,10.0,2.0
2033,55.69852941176471,10.0,2.0
2034,58.98800309597523,10.0,2.0
2035,59.549148606811144,10.0,2.0
2036,55.69852941176471,10.0,2.0
2037,53.02341331269351,10.0,2.0
2038,57.904411764705884,10.0,2.0
2039,59.00251547987617,10.0,2.0
2040,57.85119969040248,10.0,2.0
2041,60.1828560371517,10.0,2.0
2042,58.6203560371517,10.0,2.0
2043,59.70878482972135,10.0,2.0
2044,61.7453560371517,10.0,2.0
2045,59.8297213622291,10.0,2.0
2046,59.026702786377705,10.0,2.0
2047,60.20704334365325,10.0,2.0
2048,57.49322755417956,10.0,2.0
2049,58.301083591331256,10.0,2.0
2050,57.77380030959753,10.0,2.0
2051,58.18498452012384,10.0,2.0
2052,59.04121517027865,10.0,2.0
2053,59.607198142414866,10.0,2.0
2054,59.771671826625386,10.0,2.0
2055,56.44833591331268,10.0,2.0
2056,59.84423374613003,10.0,2.0
2057,59.17666408668732,10.0,2.0
2058,58.63003095975233,10.0,2.0
2059,59.88777089783282,10.0,2.0
2060,57.304566563467496,10.0,2.0
2061,63.09017027863777,10.0,2.0
2062,60.45859133126935,10.0,2.0
2063,57.464202786377705,10.0,2.0
2064,61.155185758513916,10.0,2.0
2065,57.43517801857586,10.0,2.0
2066,57.314241486068106,10.0,2.0
2067,54.45530185758514,10.0,2.0
2068,58.83320433436533,10.0,2.0
2069,59.35081269349846,10.0,2.0
2070,56.907894736842096,10.0,2.0
2071,56.607972136222905,10.0,2.0
2072,59.72813467492262,10.0,2.0
2073,60.68595201238389,10.0,2.0
2074,59.22987616099071,10.0,2.0
2075,58.054373065015476,10.0,2.0
2076,57.56578947368421,10.0,2.0
2077,56.91756965944273,10.0,2.0
2078,52.612229102167184,10.0,2.0
2079,66.00232198142416,10.0,2.0
2080,61.87113003095976,10.0,2.0
2081,58.13660990712074,10.0,2.0
2082,60.652089783281724,10.0,2.0
2083,57.57062693498453,10.0,2.0
2084,61.95336687306504,10.0,2.0
2085,59.99903250773993,10.0,2.0
2086,56.71923374613003,10.0,2.0
2087,61.648606811145505,10.0,2.0
2088,59.83939628482973,10.0,2.0
2089,59.578173374613,10.0,2.0
2090,57.028831269349844,10.0,2.0
2091,59.39918730650154,10.0,2.0
2092,59.95549535603715,10.0,2.0
2093,58.85739164086688,10.0,2.0
2094,55.49535603715169,10.0,2.0
2095,65.81366099071207,10.0,2.0
2096,60.71497678018576,10.0,2.0
2097,60.49729102167183,10.0,2.0
2098,56.86919504643963,10.0,2.0
2099,54.890673374613,10.0,2.0
2100,57.95278637770898,10.0,2.0
2101,60.62306501547988,10.0,2.0
2102,57.10623065015479,10.0,2.0
2103,61.58088235294117,10.0,2.0
2104,59.53463622291022,10.0,2.0
2105,57.25619195046439,10.0,2.0
2106,48.36493808049535,10.0,2.0
2107,59.14763931888545,10.0,2.0
2108,55.87267801857584,10.0,2.0
2109,63.39976780185759,10.0,2.0
2110,60.48277863777089,10.0,2.0
2111,55.321207430340564,10.0,2.0
2112,56.520897832817326,10.0,2.0
2113,55.33571981424149,10.0,2.0
2114,59.771671826625386,10.0,2.0
2115,59.88777089783282,10.0,2.0
2116,58.422020123839005,10.0,2.0
2117,58.06404798761609,10.0,2.0
2118,57.028831269349844,10.0,2.0
2119,57.51257739938081,10.0,2.0
2120,55.86784055727554,10.0,2.0
2121,57.01431888544892,10.0,2.0
2122,60.903637770897824,10.0,2.0
2123,61.04392414860681,10.0,2.0
2124,58.097910216718276,10.0,2.0
2125,59.14763931888545,10.0,2.0
2126,59.21052631578948,10.0,2.0
2127,56.98045665634674,10.0,2.0
2128,61.50348297213621,10.0,2.0
2129,58.98316563467492,10.0,2.0
2130,59.62654798761611,10.0,2.0
2131,56.86919504643963,10.0,2.0
2132,62.456462848297214,10.0,2.0
2133,59.05089009287926,10.0,2.0
2134,59.2250386996904,10.0,2.0
2135,60.739164086687296,10.0,2.0
2136,62.4516253869969,10.0,2.0
2137,57.628676470588225,10.0,2.0
2138,53.89899380804954,10.0,2.0
2139,54.70201238390092,10.0,2.0
2140,55.00677244582045,10.0,2.0
2141,60.134481424148596,10.0,2.0
2142,60.62306501547988,10.0,2.0
2143,61.614744582043365,10.0,2.0
2144,57.79798761609907,10.0,2.0
2145,61.37770897832817,10.0,2.0
2146,53.44427244582044,10.0,2.0
2147,59.91195820433436,10.0,2.0
2148,58.513931888544896,10.0,2.0
2149,56.12422600619194,10.0,2.0
2150,56.15325077399382,10.0,2.0
2151,57.49806501547987,10.0,2.0
2152,56.216137770897824,10.0,2.0
2153,54.13602941176471,10.0,2.0
2154,59.54914860681115,10.0,2.0
2155,58.847716718266255,10.0,2.0
2156,54.09732972136222,10.0,2.0
2157,60.06675696594427,10.0,2.0
2158,57.65286377708978,10.0,2.0
2159,59.171826625387,10.0,2.0
2160,57.80282507739939,10.0,2.0
2161,59.408862229102176,10.0,2.0
2162,56.24516253869968,10.0,2.0
2163,57.28037925696595,10.0,2.0
2164,61.130998452012385,10.0,2.0
2165,60.70046439628483,10.0,2.0
2166,58.83804179566562,10.0,2.0
2167,64.33823529411764,10.0,2.0
2168,57.27554179566564,10.0,2.0
2169,62.81443498452011,10.0,2.0
2170,59.418537151702786,10.0,2.0
2171,60.91815015479875,10.0,2.0
2172,58.48006965944272,10.0,2.0
2173,58.43169504643962,10.0,2.0
2174,57.7109133126935,10.0,2.0
2175,62.4032507739938,10.0,2.0
2176,63.477167182662534,10.0,2.0
2177,60.0764318885449,10.0,2.0
2178,59.82004643962848,10.0,2.0
2179,59.08475232198143,10.0,2.0
2180,57.033668730650156,10.0,2.0
2181,58.34462074303407,10.0,2.0
2182,58.92995356037152,10.0,2.0
2183,55.33571981424149,10.0,2.0
2184,62.28715170278639,10.0,2.0
2185,62.19040247678018,10.0,2.0
2186,57.26586687306502,10.0,2.0
2187,59.104102167182646,10.0,2.0
2188,57.50773993808049,10.0,2.0
2189,62.14686532507738,10.0,2.0
2190,63.16273219814239,10.0,2.0
2191,56.922407120743024,10.0,2.0
2192,61.638931888544896,10.0,2.0
2193,61.56153250773993,10.0,2.0
2194,58.27689628482973,10.0,2.0
2195,59.23471362229103,10.0,2.0
2196,60.83107585139319,10.0,2.0
2197,58.160797213622295,10.0,2.0
2198,57.348103715170275,10.0,2.0
2199,55.171246130030966,10.0,2.0
2200,61.537345201238395,10.0,2.0
2201,57.290054179566575,10.0,2.0
2202,57.096555727554176,10.0,2.0
2203,57.29972910216718,10.0,2.0
2204,55.62596749226007,10.0,2.0
2205,59.54431114551085,10.0,2.0
2206,58.92995356037152,10.0,2.0
2207,54.005417956656345,10.0,2.0
2208,53.91350619195046,10.0,2.0
2209,62.4516253869969,10.0,2.0
2210,56.62248452012384,10.0,2.0
2211,55.408281733746115,10.0,2.0
2212,58.80417956656347,10.0,2.0
2213,57.8608746130031,10.0,2.0
2214,57.66737616099071,10.0,2.0
2215,62.848297213622295,10.0,2.0
2216,60.5795278637771,10.0,2.0
2217,55.1809210526316,10.0,2.0
2218,63.51102941176471,10.0,2.0
2219,58.5187693498452,10.0,2.0
2220,55.21478328173375,10.0,2.0
2221,65.27670278637771,10.0,2.0
2222,57.78347523219815,10.0,2.0
2223,60.342492260061924,10.0,2.0
2224,58.35913312693498,10.0,2.0
2225,57.80766253869968,10.0,2.0
2226,61.721168730650156,10.0,2.0
2227,50.619195046439636,10.0,2.0
2228,58.89609133126935,10.0,2.0
2229,63.92221362229103,10.0,2.0
2230,59.31211300309597,10.0,2.0
2231,60.744001547987615,10.0,2.0
2232,60.31830495356037,10.0,2.0
2233,60.424729102167184,10.0,2.0
2234,56.52573529411765,10.0,2.0
2235,57.78831269349845,10.0,2.0
2236,68.60003869969039,10.0,2.0
2237,61.62441950464397,10.0,2.0
2238,60.3424922600619,10.0,2.0
2239,60.6762770897833,10.0,2.0
2240,60.090944272445824,10.0,2.0
2241,63.007933436532504,10.0,2.0
2242,57.39164086687306,10.0,2.0
2243,66.35061919504645,10.0,2.0
2244,62.50483746130032,10.0,2.0
2245,61.60023219814239,10.0,2.0
2246,60.97619969040248,10.0,2.0
2247,60.02321981424149,10.0,2.0
2248,56.92724458204332,10.0,2.0
2249,55.137383900928796,10.0,2.0
2250,56.17743808049536,10.0,2.0
2251,55.466331269349844,10.0,2.0
2252,60.31830495356037,10.0,2.0
2253,58.36880804953561,10.0,2.0
2254,61.111648606811144,10.0,2.0
2255,57.41099071207431,10.0,2.0
2256,54.59075077399382,10.0,2.0
2257,58.97349071207431,10.0,2.0
2258,62.11784055727554,10.0,2.0
2259,59.433049535603715,10.0,2.0
2260,60.97619969040248,10.0,2.0
2261,60.879450464396285,10.0,2.0
2262,61.89531733746129,10.0,2.0
2263,56.056501547987615,10.0,2.0
2264,57.028831269349844,10.0,2.0
2265,62.006578947368425,10.0,2.0
2266,59.61203560371517,10.0,2.0
2267,60.91815015479875,10.0,2.0
2268,58.39299535603715,10.0,2.0
2269,56.027476780185744,10.0,2.0
2270,57.28037925696595,10.0,2.0
2271,58.122097523219814,10.0,2.0
2272,61.324496904024755,10.0,2.0
2273,54.861648606811144,10.0,2.0
2274,59.59752321981424,10.0,2.0
2275,59.549148606811144,10.0,2.0
2276,57.033668730650156,10.0,2.0
2277,61.23258513931889,10.0,2.0
2278,58.446207430340564,10.0,2.0
2279,59.92647058823529,10.0,2.0
2280,58.596168730650156,10.0,2.0
2281,57.05301857585139,10.0,2.0
2282,56.24032507739939,10.0,2.0
2283,59.04605263157895,10.0,2.0
2284,58.218846749225996,10.0,2.0
2285,56.496710526315795,10.0,2.0
2286,61.368034055727556,10.0,2.0
2287,58.01567337461299,10.0,2.0
2288,55.25348297213622,10.0,2.0
2289,60.81172600619195,10.0,2.0
2290,62.29198916408667,10.0,2.0
2291,54.86164860681115,10.0,2.0
2292,55.035797213622295,10.0,2.0
2293,57.86571207430341,10.0,2.0
2294,55.62113003095976,10.0,2.0
2295,61.64376934984519,10.0,2.0
2296,59.95549535603715,10.0,2.0
2297,56.506385448916404,10.0,2.0
2298,56.3515866873065,10.0,2.0
2299,56.37577399380805,10.0,2.0
2300,58.33010835913314,10.0,2.0
2301,58.538119195046434,10.0,2.0
2302,58.98316563467493,10.0,2.0
2303,53.96671826625387,10.0,2.0
2304,56.45317337461301,10.0,2.0
2305,59.9796826625387,10.0,2.0
2306,60.07159442724458,10.0,2.0
2307,61.59539473684208,10.0,2.0
2308,53.6813080495356,10.0,2.0
2309,59.558823529411775,10.0,2.0
2310,63.37558049535603,10.0,2.0
2311,59.57333591331268,10.0,2.0
2312,58.083397832817326,10.0,2.0
2313,59.486261609907125,10.0,2.0
2314,61.56636996904026,10.0,2.0
2315,61.82759287925696,10.0,2.0
2316,56.10971362229103,10.0,2.0
2317,54.227941176470594,10.0,2.0
2318,57.03850619195046,10.0,2.0
2319,58.99767801857585,10.0,2.0
2320,62.785410216718255,10.0,2.0
2321,60.67143962848297,10.0,2.0
2322,62.175890092879285,10.0,2.0
2323,59.5297987616099,10.0,2.0
2324,54.866486068111456,10.0,2.0
2325,58.910603715170275,10.0,2.0
2326,58.63486842105264,10.0,2.0
2327,58.26722136222911,10.0,2.0
2328,60.057082043343655,10.0,2.0
2329,58.900928792569644,10.0,2.0
2330,63.428792569659436,10.0,2.0
2331,62.654798761609925,10.0,2.0
2332,60.80688854489164,10.0,2.0
2333,57.48355263157895,10.0,2.0
2334,61.45510835913313,10.0,2.0
2335,62.035603715170275,10.0,2.0
2336,58.649380804953566,10.0,2.0
2337,62.229102167182674,10.0,2.0
2338,56.03231424148607,10.0,2.0
2339,61.45510835913313,10.0,2.0
2340,60.39570433436532,10.0,2.0
2341,61.547020123839005,10.0,2.0
2342,60.26509287925696,10.0,2.0
2343,55.77592879256967,10.0,2.0
2344,59.85874613003096,10.0,2.0
2345,55.82914086687306,10.0,2.0
2346,58.3155959752322,10.0,2.0
2347,59.30243808049536,10.0,2.0
2348,57.033668730650156,10.0,2.0
2349,64.5123839009288,10.0,2.0
2350,55.57759287925696,10.0,2.0
2351,60.39086687306502,10.0,2.0
2352,63.89318885448918,10.0,2.0
2353,53.81191950464397,10.0,2.0
2354,59.43788699690401,10.0,2.0
2355,58.43653250773993,10.0,2.0
2356,61.169698142414866,10.0,2.0
2357,60.19253095975233,10.0,2.0
2358,61.62441950464397,10.0,2.0
2359,57.57546439628483,10.0,2.0
2360,60.39086687306502,10.0,2.0
2361,60.70530185758514,10.0,2.0
2362,57.00948142414861,10.0,2.0
2363,61.774380804953545,10.0,2.0
2364,54.029605263157904,10.0,2.0
2365,63.452979876161,10.0,2.0
2366,59.81520897832817,10.0,2.0
2367,60.37151702786378,10.0,2.0
2368,56.24032507739939,10.0,2.0
2369,58.852554179566546,10.0,2.0
2370,61.27612229102167,10.0,2.0
2371,58.117260061919495,10.0,2.0
2372,59.65557275541796,10.0,2.0
2373,59.307275541795676,10.0,2.0
2374,62.13719040247676,10.0,2.0
2375,62.68382352941178,10.0,2.0
2376,62.92085913312694,10.0,2.0
2377,56.84017027863777,10.0,2.0
2378,58.04469814241486,10.0,2.0
2379,61.36319659442725,10.0,2.0
2380,51.451238390092875,10.0,2.0
2381,57.111068111455104,10.0,2.0
2382,61.41640866873065,10.0,2.0
2383,54.64880030959752,10.0,2.0
2384,61.0922987616099,10.0,2.0
2385,55.76141640866873,10.0,2.0
2386,63.67550309597523,10.0,2.0
2387,58.47523219814242,10.0,2.0
2388,57.81250000000001,10.0,2.0
2389,55.62113003095976,10.0,2.0
2390,55.422794117647065,10.0,2.0
2391,56.080688854489175,10.0,2.0
2392,57.44001547987616,10.0,2.0
2393,55.16157120743034,10.0,2.0
2394,59.42821207430341,10.0,2.0
2395,60.71013931888545,10.0,2.0
2396,56.54508513931889,10.0,2.0
2397,54.82778637770898,10.0,2.0
2398,57.26102941176471,10.0,2.0
2399,63.767414860681114,10.0,2.0
2400,61.387383900928796,10.0,2.0
2401,61.49864551083592,10.0,2.0
2402,57.43034055727554,10.0,2.0
2403,62.05979102167183,10.0,2.0
2404,57.00464396284831,10.0,2.0
2405,57.97697368421051,10.0,2.0
2406,56.10487616099071,10.0,2.0
2407,58.160797213622295,10.0,2.0
2408,61.595394736842096,10.0,2.0
2409,55.437306501547994,10.0,2.0
2410,57.401315789473685,10.0,2.0
2411,58.09307275541796,10.0,2.0
2412,54.46981424148606,10.0,2.0
2413,56.472523219814256,10.0,2.0
2414,56.60797213622293,10.0,2.0
2415,58.3155959752322,10.0,2.0
2416,59.09442724458204,10.0,2.0
2417,61.51799535603715,10.0,2.0
2418,54.54721362229102,10.0,2.0
2419,57.68672600619195,10.0,2.0
2420,55.33571981424149,10.0,2.0
2421,58.15112229102167,10.0,2.0
2422,59.90228328173375,10.0,2.0
2423,52.626741486068106,10.0,2.0
2424,56.864357585139324,10.0,2.0
2425,57.73510061919505,10.0,2.0
2426,60.04256965944273,10.0,2.0
2427,57.19330495356037,10.0,2.0
2428,58.95414086687306,10.0,2.0
2429,52.81540247678018,10.0,2.0
2430,57.628676470588225,10.0,2.0
2431,55.209945820433425,10.0,2.0
2432,58.3688080495356,10.0,2.0
2433,59.78134674922601,10.0,2.0
2434,63.49651702786379,10.0,2.0
2435,59.84423374613004,10.0,2.0
2436,56.2451625386997,10.0,2.0
2437,58.175309597523224,10.0,2.0
2438,59.53463622291022,10.0,2.0
2439,58.538119195046434,10.0,2.0
2440,62.214589783281724,10.0,2.0
2441,55.398606811145505,10.0,2.0
2442,59.9313080495356,10.0,2.0
2443,56.607972136222905,10.0,2.0
2444,56.656346749225996,10.0,2.0
2445,61.808243034055735,10.0,2.0
2446,57.096555727554176,10.0,2.0
2447,58.8815789473684,10.0,2.0
2448,57.57546439628485,10.0,2.0
2449,59.05572755417956,10.0,2.0
2450,60.00386996904025,10.0,2.0
2451,60.429566563467496,10.0,2.0
2452,60.85526315789475,10.0,2.0
2453,59.86358359133127,10.0,2.0
2454,56.57894736842106,10.0,2.0
2455,57.63351393188856,10.0,2.0
2456,59.27825077399382,10.0,2.0
2457,53.908668730650156,10.0,2.0
2458,57.85119969040248,10.0,2.0
2459,63.20626934984521,10.0,2.0
2460,55.94523993808049,10.0,2.0
2461,55.32604489164086,10.0,2.0
2462,56.056501547987615,10.0,2.0
2463,58.55746904024768,10.0,2.0
2464,55.8484907120743,10.0,2.0
2465,56.19678792569658,10.0,2.0
2466,53.986068111455104,10.0,2.0
2467,58.33494582043343,10.0,2.0
2468,55.829140866873075,10.0,2.0
2469,61.111648606811144,10.0,2.0
2470,57.27554179566564,10.0,2.0
2471,60.782701238390075,10.0,2.0
2472,60.826238390092875,10.0,2.0
2473,54.2859907120743,10.0,2.0
2474,56.52573529411765,10.0,2.0
2475,61.48413312693498,10.0,2.0
2476,60.666602167182674,10.0,2.0
2477,57.26102941176471,10.0,2.0
2478,59.42337461300309,10.0,2.0
2479,60.97619969040248,10.0,2.0
2480,53.158862229102155,10.0,2.0
2481,57.701238390092875,10.0,2.0
2482,60.04256965944273,10.0,2.0
2483,59.878095975232185,10.0,2.0
2484,58.649380804953545,10.0,2.0
2485,60.45859133126935,10.0,2.0
2486,56.84017027863778,10.0,2.0
2487,58.5139318885449,10.0,2.0
2488,61.95336687306502,10.0,2.0
2489,58.7799922600619,10.0,2.0
2490,60.24090557275542,10.0,2.0
2491,58.68808049535603,10.0,2.0
2492,58.39783281733746,10.0,2.0
2493,59.07023993808049,10.0,2.0
2494,60.855263157894726,10.0,2.0
2495,58.112422600619205,10.0,2.0
2496,59.568498452012385,10.0,2.0
2497,60.153831269349844,10.0,2.0
2498,54.411764705882355,10.0,2.0
2499,59.32662538699691,10.0,2.0
2500,55.15673374613003,10.0,2.0
2501,59.70394736842105,10.0,2.0
2502,58.86222910216718,10.0,2.0
2503,57.386803405572756,10.0,2.0
2504,59.22987616099071,10.0,2.0
2505,53.46845975232198,10.0,2.0
2506,61.86145510835914,10.0,2.0
2507,55.05514705882353,10.0,2.0
2508,56.7530959752322,10.0,2.0
2509,53.797407120743024,10.0,2.0
2510,58.789667182662534,10.0,2.0
2511,59.63622291021672,10.0,2.0
2512,58.10758513931889,10.0,2.0
2513,60.40054179566562,10.0,2.0
2514,61.426083591331256,10.0,2.0
2515,57.140092879256976,10.0,2.0
2516,57.39647832817337,10.0,2.0
2517,58.23819659442726,10.0,2.0
2518,56.58378482972135,10.0,2.0
2519,59.104102167182646,10.0,2.0
2520,55.70820433436532,10.0,2.0
2521,60.565015479876145,10.0,2.0
2522,57.4109907120743,10.0,2.0
2523,59.32662538699691,10.0,2.0
2524,56.9562693498452,10.0,2.0
2525,61.59539473684214,10.0,2.0
2526,55.1905959752322,10.0,2.0
2527,58.547794117647065,10.0,2.0
2528,62.43227554179568,10.0,2.0
2529,58.69775541795666,10.0,2.0
2530,54.087654798761605,10.0,2.0
2531,58.533281733746136,10.0,2.0
2532,56.1435758513932,10.0,2.0
2533,61.885642414860676,10.0,2.0
2534,60.632739938080505,10.0,2.0
2535,58.08823529411765,10.0,2.0
2536,58.97832817337461,10.0,2.0
2537,62.19040247678018,10.0,2.0
2538,57.3577786377709,10.0,2.0
2539,60.28928018575851,10.0,2.0
2540,59.012190402476776,10.0,2.0
2541,58.112422600619205,10.0,2.0
2542,56.10971362229101,10.0,2.0
2543,62.132352941176464,10.0,2.0
2544,60.100619195046434,10.0,2.0
2545,59.834558823529406,10.0,2.0
2546,57.29489164086687,10.0,2.0
2547,56.61764705882353,10.0,2.0
2548,55.06482198142415,10.0,2.0
2549,59.34597523219814,10.0,2.0
2550,62.82410990712075,10.0,2.0
2551,58.044698142414866,10.0,2.0
2552,63.03695820433436,10.0,2.0
2553,60.69562693498453,10.0,2.0
2554,57.541602167182674,10.0,2.0
2555,58.789667182662534,10.0,2.0
2556,56.87886996904025,10.0,2.0
2557,59.4717492260062,10.0,2.0
2558,64.22213622291022,10.0,2.0
2559,58.83320433436533,10.0,2.0
2560,57.846362229102176,10.0,2.0
2561,60.753676470588225,10.0,2.0
2562,58.30592105263157,10.0,2.0
2563,60.70046439628483,10.0,2.0
2564,62.16137770897832,10.0,2.0
2565,64.06733746130031,10.0,2.0
2566,58.28657120743034,10.0,2.0
2567,59.64589783281735,10.0,2.0
2568,58.571981424148596,10.0,2.0
2569,59.77650928792569,10.0,2.0
2570,58.54295665634676,10.0,2.0
2571,60.70530185758514,10.0,2.0
2572,56.506385448916404,10.0,2.0
2573,58.175309597523224,10.0,2.0
2574,56.2983746130031,10.0,2.0
2575,61.22774767801858,10.0,2.0
2576,57.54643962848297,10.0,2.0
2577,59.88777089783282,10.0,2.0
2578,61.50348297213621,10.0,2.0
2579,57.55127708978328,10.0,2.0
2580,58.2140092879257,10.0,2.0
2581,55.16640866873064,10.0,2.0
2582,57.401315789473685,10.0,2.0
2583,61.49864551083591,10.0,2.0
2584,62.417763157894726,10.0,2.0
2585,59.316950464396285,10.0,2.0
2586,55.80979102167185,10.0,2.0
2587,60.642414860681114,10.0,2.0
2588,55.24864551083592,10.0,2.0
2589,60.27476780185759,10.0,2.0
2590,59.14280185758514,10.0,2.0
2591,61.677631578947384,10.0,2.0
2592,59.34597523219815,10.0,2.0
2593,63.16756965944274,10.0,2.0
2594,62.46130030959754,10.0,2.0
2595,59.27825077399382,10.0,2.0
2596,59.21536377708978,10.0,2.0
2597,54.93904798761611,10.0,2.0
2598,56.27418730650155,10.0,2.0
2599,57.62383900928792,10.0,2.0
2600,59.558823529411754,10.0,2.0
2601,62.46130030959754,10.0,2.0
2602,58.14628482972137,10.0,2.0
2603,57.33842879256966,10.0,2.0
2604,60.25058049535603,10.0,2.0
2605,57.98181114551085,10.0,2.0
2606,63.72871517027865,10.0,2.0
2607,58.20433436532507,10.0,2.0
2608,55.050309597523224,10.0,2.0
2609,58.38815789473682,10.0,2.0
2610,56.54024767801858,10.0,2.0
2611,60.54082817337461,10.0,2.0
2612,58.562306501548,10.0,2.0
2613,61.890479876160974,10.0,2.0
2614,61.47445820433436,10.0,2.0
2615,59.74264705882353,10.0,2.0
2616,59.90228328173375,10.0,2.0
2617,58.18498452012384,10.0,2.0
2618,57.086880804953566,10.0,2.0
2619,55.33571981424149,10.0,2.0
2620,62.20491486068111,10.0,2.0
2621,63.341718266253864,10.0,2.0
2622,58.28657120743034,10.0,2.0
2623,61.784055727554176,10.0,2.0
2624,58.2140092879257,10.0,2.0
2625,61.663119195046455,10.0,2.0
2626,61.15034829721362,10.0,2.0
2627,58.310758513931894,10.0,2.0
2628,61.15034829721361,10.0,2.0
2629,56.39028637770898,10.0,2.0
2630,52.91698916408669,10.0,2.0
2631,57.677051083591344,10.0,2.0
2632,55.60178018575851,10.0,2.0
2633,60.70530185758514,10.0,2.0
2634,61.16002321981426,10.0,2.0
2635,60.79721362229103,10.0,2.0
2636,61.619582043343655,10.0,2.0
2637,56.87886996904025,10.0,2.0
2638,60.642414860681114,10.0,2.0
2639,55.050309597523224,10.0,2.0
2640,57.59965170278638,10.0,2.0
2641,59.72813467492261,10.0,2.0
2642,59.68943498452013,10.0,2.0
2643,56.62248452012384,10.0,2.0
2644,59.06540247678018,10.0,2.0
2645,57.701238390092875,10.0,2.0
2646,56.341911764705884,10.0,2.0
2647,60.24574303405572,10.0,2.0
2648,62.14202786377707,10.0,2.0
2649,56.30321207430341,10.0,2.0
2650,59.200851393188856,10.0,2.0
2651,54.44078947368421,10.0,2.0
2652,56.656346749225996,10.0,2.0
2653,61.86629256965945,10.0,2.0
2654,58.3688080495356,10.0,2.0
2655,61.86629256965945,10.0,2.0
2656,60.27476780185761,10.0,2.0
2657,60.511803405572756,10.0,2.0
2658,62.48548761609908,10.0,2.0
2659,57.64802631578947,10.0,2.0
2660,61.36319659442725,10.0,2.0
2661,56.646671826625386,10.0,2.0
2662,61.977554179566546,10.0,2.0
2663,60.8407507739938,10.0,2.0
2664,59.36532507739939,10.0,2.0
2665,57.512577399380795,10.0,2.0
2666,61.116486068111456,10.0,2.0
2667,58.47523219814242,10.0,2.0
2668,60.250580495356026,10.0,2.0
2669,64.31888544891639,10.0,2.0
2670,58.85739164086687,10.0,2.0
2671,58.779992260061924,10.0,2.0
2672,57.217492260061924,10.0,2.0
2673,53.38622291021672,10.0,2.0
2674,59.45239938080495,10.0,2.0
2675,56.549922600619205,10.0,2.0
2676,58.422020123839005,10.0,2.0
2677,55.7952786377709,10.0,2.0
2678,59.36048761609908,10.0,2.0
2679,61.93401702786379,10.0,2.0
2680,58.50909442724458,10.0,2.0
2681,60.0812693498452,10.0,2.0
2682,58.6735681114551,10.0,2.0
2683,58.58649380804954,10.0,2.0
2684,59.90712074303407,10.0,2.0
2685,61.16002321981424,10.0,2.0
2686,59.394349845201255,10.0,2.0
2687,57.37712848297213,10.0,2.0
2688,61.435758513931894,10.0,2.0
2689,55.14222136222911,10.0,2.0
2690,59.200851393188856,10.0,2.0
2691,57.49322755417956,10.0,2.0
2692,58.45104489164086,10.0,2.0
2693,53.57972136222911,10.0,2.0
2694,58.99767801857586,10.0,2.0
2695,61.813080495356026,10.0,2.0
2696,56.88854489164086,10.0,2.0
2697,57.638351393188856,10.0,2.0
2698,61.58088235294117,10.0,2.0
2699,60.00386996904025,10.0,2.0
2700,61.35352167182663,10.0,2.0
2701,61.32449690402477,10.0,2.0
2702,63.535216718266255,10.0,2.0
2703,58.89609133126935,10.0,2.0
2704,58.61551857585139,10.0,2.0
2705,61.6486068111455,10.0,2.0
2706,55.86784055727554,10.0,2.0
2707,59.93614551083592,10.0,2.0
2708,59.68459752321982,10.0,2.0
2709,59.12345201238389,10.0,2.0
2710,58.90576625386997,10.0,2.0
2711,56.7579334365325,10.0,2.0
2712,53.613583591331285,10.0,2.0
2713,59.71845975232198,10.0,2.0
2714,61.56153250773993,10.0,2.0
2715,54.194078947368425,10.0,2.0
2716,59.805534055727556,10.0,2.0
2717,56.22581269349845,10.0,2.0
2718,54.276315789473685,10.0,2.0
2719,60.54082817337461,10.0,2.0
2720,62.73703560371517,10.0,2.0
2721,56.70472136222911,10.0,2.0
2722,58.51876934984521,10.0,2.0
2723,58.625193498452006,10.0,2.0
2724,57.21265479876162,10.0,2.0
2725,58.89609133126935,10.0,2.0
2726,57.0481811145511,10.0,2.0
2727,57.947948916408656,10.0,2.0
2728,53.255611455108344,10.0,2.0
2729,53.647445820433425,10.0,2.0
2730,60.221555727554176,10.0,2.0
2731,58.66873065015481,10.0,2.0
2732,57.37712848297213,10.0,2.0
2733,60.60371517027865,10.0,2.0
2734,56.985294117647065,10.0,2.0
2735,60.632739938080505,10.0,2.0
2736,58.58649380804954,10.0,2.0
2737,63.51586687306502,10.0,2.0
2738,57.83668730650155,10.0,2.0
2739,62.71284829721361,10.0,2.0
2740,59.283088235294116,10.0,2.0
2741,53.66679566563466,10.0,2.0
2742,61.22774767801858,10.0,2.0
2743,61.25193498452012,10.0,2.0
2744,61.05359907120743,10.0,2.0
2745,57.348103715170275,10.0,2.0
2746,60.090944272445824,10.0,2.0
2747,59.42821207430341,10.0,2.0
2748,57.18363003095975,10.0,2.0
2749,59.68943498452013,10.0,2.0
2750,60.89880030959751,10.0,2.0
2751,57.64802631578947,10.0,2.0
2752,55.11319659442725,10.0,2.0
2753,53.43943498452013,10.0,2.0
2754,55.17608359133127,10.0,2.0
2755,56.48219814241486,10.0,2.0
2756,59.53947368421053,10.0,2.0
2757,54.76973684210525,10.0,2.0
2758,56.04682662538701,10.0,2.0
2759,59.89744582043343,10.0,2.0
2760,63.08049535603715,10.0,2.0
2761,59.558823529411775,10.0,2.0
2762,58.6735681114551,10.0,2.0
2763,60.17801857585139,10.0,2.0
2764,52.404218266253864,10.0,2.0
2765,54.40692724458204,10.0,2.0
2766,54.36822755417956,10.0,2.0
2767,55.95975232198142,10.0,2.0
2768,56.699883900928796,10.0,2.0
2769,60.74883900928791,10.0,2.0
2770,64.64299535603713,10.0,2.0
2771,61.94852941176471,10.0,2.0
2772,53.69098297213623,10.0,2.0
2773,57.64802631578947,10.0,2.0
2774,60.739164086687296,10.0,2.0
2775,61.048761609907125,10.0,2.0
2776,57.202979876161,10.0,2.0
2777,58.90092879256967,10.0,2.0
2778,61.21807275541796,10.0,2.0
2779,55.31153250773993,10.0,2.0
2780,57.27554179566564,10.0,2.0
2781,60.10545665634675,10.0,2.0
2782,59.181501547987615,10.0,2.0
2783,60.477941176470594,10.0,2.0
2784,56.530572755417964,10.0,2.0
2785,58.344620743034035,10.0,2.0
2786,63.0563080495356,10.0,2.0
2787,58.38815789473684,10.0,2.0
2788,56.622484520123855,10.0,2.0
2789,59.660410216718276,10.0,2.0
2790,58.7703173374613,10.0,2.0
2791,60.69078947368421,10.0,2.0
2792,58.097910216718276,10.0,2.0
2793,56.90305727554179,10.0,2.0
2794,59.960332817337466,10.0,2.0
2795,60.511803405572756,10.0,2.0
2796,61.44059597523219,10.0,2.0
2797,58.88641640866873,10.0,2.0
2798,56.79663312693498,10.0,2.0
2799,60.477941176470594,10.0,2.0
2800,57.556114551083596,10.0,2.0
2801,62.26780185758514,10.0,2.0
2802,58.591331269349844,10.0,2.0
2803,60.65692724458204,10.0,2.0
2804,58.53328173374613,10.0,2.0
2805,58.33010835913312,10.0,2.0
2806,56.59345975232198,10.0,2.0
2807,58.528444272445824,10.0,2.0
2808,58.50425696594428,10.0,2.0
2809,60.68595201238389,10.0,2.0
2810,64.25116099071207,10.0,2.0
2811,55.98393962848297,10.0,2.0
2812,58.91544117647057,10.0,2.0
2813,59.00251547987616,10.0,2.0
2814,56.35642414860681,10.0,2.0
2815,61.57120743034055,10.0,2.0
2816,58.63003095975233,10.0,2.0
2817,59.684597523219814,10.0,2.0
2818,60.66660216718265,10.0,2.0
2819,59.00735294117647,10.0,2.0
2820,61.95336687306502,10.0,2.0
2821,56.032314241486084,10.0,2.0
2822,58.53328173374613,10.0,2.0
2823,61.08262383900929,10.0,2.0
2824,60.50212848297213,10.0,2.0
2825,58.55263157894736,10.0,2.0
2826,54.15537925696593,10.0,2.0
2827,59.10410216718265,10.0,2.0
2828,59.616873065015476,10.0,2.0
2829,59.15247678018576,10.0,2.0
2830,60.0812693498452,10.0,2.0
2831,59.70878482972137,10.0,2.0
2832,57.48355263157894,10.0,2.0
2833,58.10274767801858,10.0,2.0
2834,61.45510835913313,10.0,2.0
2835,63.44330495356037,10.0,2.0
2836,58.93479102167183,10.0,2.0
2837,59.69910990712075,10.0,2.0
2838,58.262383900928796,10.0,2.0
2839,60.45375386996904,10.0,2.0
2840,53.77321981424149,10.0,2.0
2841,59.970007739938076,10.0,2.0
2842,60.652089783281724,10.0,2.0
2843,60.981037151702786,10.0,2.0
2844,61.86145510835914,10.0,2.0
2845,56.845007739938076,10.0,2.0
2846,59.00251547987617,10.0,2.0
2847,59.631385448916426,10.0,2.0
2848,60.7875386996904,10.0,2.0
2849,62.41776315789475,10.0,2.0
2850,60.37635448916408,10.0,2.0
2851,61.774380804953566,10.0,2.0
2852,57.58997678018576,10.0,2.0
2853,59.254063467492244,10.0,2.0
2854,55.10835913312694,10.0,2.0
2855,56.35642414860681,10.0,2.0
2856,59.39434984520125,10.0,2.0
2857,57.70607585139317,10.0,2.0
2858,58.10758513931889,10.0,2.0
2859,63.631965944272444,10.0,2.0
2860,60.83591331269351,10.0,2.0
2861,58.20433436532508,10.0,2.0
2862,57.991486068111456,10.0,2.0
2863,57.754450464396285,10.0,2.0
2864,58.07856037151702,10.0,2.0
2865,57.04334365325077,10.0,2.0
2866,61.28095975232198,10.0,2.0
2867,59.30243808049536,10.0,2.0
2868,59.23955108359133,10.0,2.0
2869,56.61764705882352,10.0,2.0
2870,56.859520123839005,10.0,2.0
2871,55.69852941176471,10.0,2.0
2872,55.03095975232198,10.0,2.0
2873,58.48006965944271,10.0,2.0
2874,60.448916408668744,10.0,2.0
2875,56.7434210526316,10.0,2.0
2876,63.554566563467496,10.0,2.0
2877,57.86087461300309,10.0,2.0
2878,55.64531733746129,10.0,2.0
2879,56.01780185758514,10.0,2.0
2880,59.974845201238395,10.0,2.0
2881,60.37151702786378,10.0,2.0
2882,60.74883900928791,10.0,2.0
2883,60.86493808049536,10.0,2.0
2884,58.692917956656345,10.0,2.0
2885,59.23471362229102,10.0,2.0
2886,56.40963622291022,10.0,2.0
2887,58.68808049535603,10.0,2.0
2888,56.39028637770898,10.0,2.0
2889,64.48819659442725,10.0,2.0
2890,56.0565015479876,10.0,2.0
2891,63.07565789473684,10.0,2.0
2892,54.9390479876161,10.0,2.0
2893,56.932082043343655,10.0,2.0
2894,56.54992260061921,10.0,2.0
2895,58.75580495356038,10.0,2.0
2896,62.35487616099071,10.0,2.0
2897,55.151896284829725,10.0,2.0
2898,59.71362229102167,10.0,2.0
2899,58.19465944272446,10.0,2.0
2900,60.10545665634674,10.0,2.0
2901,64.07701238390092,10.0,2.0
2902,57.140092879256976,10.0,2.0
2903,61.24226006191951,10.0,2.0
2904,58.523606811145505,10.0,2.0
2905,61.426083591331285,10.0,2.0
2906,60.71013931888545,10.0,2.0
2907,57.18846749226007,10.0,2.0
2908,57.01915634674922,10.0,2.0
2909,57.68672600619195,10.0,2.0
2910,57.778637770897824,10.0,2.0
2911,58.14628482972135,10.0,2.0
2912,56.10971362229101,10.0,2.0
2913,54.76489938080494,10.0,2.0
2914,60.92298761609908,10.0,2.0
2915,57.077205882352935,10.0,2.0
2916,58.61551857585139,10.0,2.0
2917,54.30050309597523,10.0,2.0
2918,58.23335913312694,10.0,2.0
2919,55.33571981424149,10.0,2.0
2920,65.1073916408669,10.0,2.0
2921,62.11300309597523,10.0,2.0
2922,53.216911764705884,10.0,2.0
2923,58.63003095975232,10.0,2.0
2924,60.03773219814242,10.0,2.0
2925,63.17240712074304,10.0,2.0
2926,58.262383900928796,10.0,2.0
2927,62.088815789473685,10.0,2.0
2928,61.96787925696593,10.0,2.0
2929,59.63622291021672,10.0,2.0
2930,58.60584365325078,10.0,2.0
2931,57.6625386996904,10.0,2.0
2932,54.706849845201255,10.0,2.0
2933,60.753676470588225,10.0,2.0
2934,57.27070433436533,10.0,2.0
2935,58.721942724458195,10.0,2.0
2936,59.69910990712074,10.0,2.0
2937,53.424922600619205,10.0,2.0
2938,55.16640866873066,10.0,2.0
2939,54.06830495356037,10.0,2.0
2940,56.78695820433436,10.0,2.0
2941,58.538119195046434,10.0,2.0
2942,60.13931888544892,10.0,2.0
2943,56.17743808049536,10.0,2.0
2944,57.188467492260045,10.0,2.0
2945,59.389512383900936,10.0,2.0
2946,57.493227554179576,10.0,2.0
2947,57.38680340557275,10.0,2.0
2948,56.59345975232198,10.0,2.0
2949,57.62383900928793,10.0,2.0
2950,61.450270897832816,10.0,2.0
2951,58.015673374613,10.0,2.0
2952,58.92995356037152,10.0,2.0
2953,58.20433436532508,10.0,2.0
2954,58.48006965944273,10.0,2.0
2955,57.62383900928792,10.0,2.0
2956,55.47600619195046,10.0,2.0
2957,59.660410216718276,10.0,2.0
2958,58.47523219814241,10.0,2.0
2959,55.790441176470594,10.0,2.0
2960,64.28502321981422,10.0,2.0
2961,59.21052631578947,10.0,2.0
2962,59.34597523219814,10.0,2.0
2963,56.53057275541796,10.0,2.0
2964,61.155185758513916,10.0,2.0
2965,57.889899380804955,10.0,2.0
2966,60.46826625386997,10.0,2.0
2967,53.50232198142414,10.0,2.0
2968,57.159442724458195,10.0,2.0
2969,58.23819659442725,10.0,2.0
2970,56.09520123839009,10.0,2.0
2971,58.83320433436533,10.0,2.0
2972,57.53192724458204,10.0,2.0
2973,57.92859907120743,10.0,2.0
2974,59.79102167182663,10.0,2.0
2975,61.37770897832817,10.0,2.0
2976,59.95065789473684,10.0,2.0
2977,59.205688854489175,10.0,2.0
2978,56.54024767801858,10.0,2.0
2979,60.506965944272444,10.0,2.0
2980,61.10197368421054,10.0,2.0
2981,57.98181114551085,10.0,2.0
2982,55.863003095975245,10.0,2.0
2983,58.484907120743024,10.0,2.0
2984,57.13525541795666,10.0,2.0
2985,56.42414860681115,10.0,2.0
2986,56.448335913312704,10.0,2.0
2987,56.874032507739926,10.0,2.0
2988,59.51528637770898,10.0,2.0
2989,56.03715170278638,10.0,2.0
2990,57.111068111455104,10.0,2.0
2991,62.78541021671828,10.0,2.0
2992,55.70820433436533,10.0,2.0
2993,60.45375386996904,10.0,2.0
2994,57.37712848297215,10.0,2.0
2995,57.54643962848298,10.0,2.0
2996,61.76954334365326,10.0,2.0
2997,60.250580495356026,10.0,2.0
2998,59.13796439628483,10.0,2.0
2999,60.83591331269351,10.0,2.0
3000,56.54992260061919,10.0,2.0
3001,59.14280185758514,10.0,2.0
3002,59.32662538699691,10.0,2.0
3003,55.4421439628483,10.0,2.0
3004,55.81462848297215,10.0,2.0
3005,58.93962848297215,10.0,2.0
3006,59.18633900928793,10.0,2.0
3007,57.58030185758514,10.0,2.0
3008,58.741292569659436,10.0,2.0
3009,53.58939628482973,10.0,2.0
3010,61.740518575851404,10.0,2.0
3011,57.15460526315788,10.0,2.0
3012,60.444078947368425,10.0,2.0
3013,59.49593653250774,10.0,2.0
3014,55.940402476780186,10.0,2.0
3015,60.05224458204334,10.0,2.0
3016,62.03076625386996,10.0,2.0
3017,64.64783281733746,10.0,2.0
3018,56.39512383900929,10.0,2.0
3019,54.78424922600618,10.0,2.0
3020,58.194659442724465,10.0,2.0
3021,56.19678792569658,10.0,2.0
3022,58.8670665634675,10.0,2.0
3023,55.800116099071204,10.0,2.0
3024,57.865712074303396,10.0,2.0
3025,58.9734907120743,10.0,2.0
3026,60.77786377708978,10.0,2.0
3027,59.113777089783284,10.0,2.0
3028,57.285216718266255,10.0,2.0
3029,64.20278637770897,10.0,2.0
3030,58.26722136222911,10.0,2.0
3031,55.979102167182674,10.0,2.0
3032,57.81250000000001,10.0,2.0
3033,56.09036377708978,10.0,2.0
3034,60.42472910216718,10.0,2.0
3035,55.07933436532507,10.0,2.0
3036,58.4075077399381,10.0,2.0
3037,58.43169504643963,10.0,2.0
3038,61.15034829721362,10.0,2.0
3039,60.337654798761605,10.0,2.0
3040,61.04392414860681,10.0,2.0
3041,60.03773219814242,10.0,2.0
3042,57.18363003095974,10.0,2.0
3043,62.60642414860681,10.0,2.0
3044,60.110294117647065,10.0,2.0
3045,59.95549535603715,10.0,2.0
3046,61.50832043343653,10.0,2.0
3047,57.00464396284831,10.0,2.0
3048,61.21323529411765,10.0,2.0
3049,59.25890092879257,10.0,2.0
3050,54.63912538699691,10.0,2.0
3051,52.665441176470594,10.0,2.0
3052,58.68808049535603,10.0,2.0
3053,53.77321981424149,10.0,2.0
3054,61.121323529411775,10.0,2.0
3055,59.31211300309597,10.0,2.0
3056,59.505611455108365,10.0,2.0
3057,61.435758513931894,10.0,2.0
3058,61.324496904024755,10.0,2.0
3059,54.015092879256976,10.0,2.0
3060,60.72948916408669,10.0,2.0
3061,57.053018575851404,10.0,2.0
3062,57.517414860681114,10.0,2.0
3063,62.882159442724465,10.0,2.0
3064,59.205688854489175,10.0,2.0
3065,59.58301083591333,10.0,2.0
3066,62.18556501547988,10.0,2.0
3067,58.122097523219814,10.0,2.0
3068,55.73722910216718,10.0,2.0
3069,62.5,10.0,2.0
3070,56.636996904024784,10.0,2.0
3071,59.38951238390092,10.0,2.0
3072,57.319078947368425,10.0,2.0
3073,61.06811145510836,10.0,2.0
3074,58.25754643962848,10.0,2.0
3075,59.80069659442725,10.0,2.0
3076,58.6735681114551,10.0,2.0
3077,55.98393962848298,10.0,2.0
3078,56.40963622291022,10.0,2.0
3079,57.05301857585139,10.0,2.0
3080,57.76412538699691,10.0,2.0
3081,60.67627708978328,10.0,2.0
3082,63.64164086687305,10.0,2.0
3083,58.05921052631579,10.0,2.0
3084,59.055727554179576,10.0,2.0
3085,58.596168730650156,10.0,2.0
3086,54.35371517027865,10.0,2.0
3087,60.96652476780186,10.0,2.0
3088,54.556888544891635,10.0,2.0
3089,55.61145510835914,10.0,2.0
3090,58.7703173374613,10.0,2.0
3091,53.34268575851394,10.0,2.0
3092,59.771671826625386,10.0,2.0
3093,58.79934210526316,10.0,2.0
3094,58.48490712074304,10.0,2.0
3095,55.954914860681136,10.0,2.0
3096,62.63061145510836,10.0,2.0
3097,55.39376934984519,10.0,2.0
3098,62.200077399380795,10.0,2.0
3099,56.520897832817326,10.0,2.0
3100,61.846942724458195,10.0,2.0
3101,59.66524767801858,10.0,2.0
3102,56.907894736842096,10.0,2.0
3103,54.721362229102155,10.0,2.0
3104,62.1420278637771,10.0,2.0
3105,63.78676470588234,10.0,2.0
3106,60.36667956656347,10.0,2.0
3107,58.88641640866873,10.0,2.0
3108,58.18014705882353,10.0,2.0
3109,58.20433436532508,10.0,2.0
3110,55.838815789473685,10.0,2.0
3111,60.768188854489175,10.0,2.0
3112,53.8215944272446,10.0,2.0
3113,63.54972910216718,10.0,2.0
3114,55.930727554179576,10.0,2.0
3115,61.222910216718255,10.0,2.0
3116,58.6687306501548,10.0,2.0
3117,54.31501547987617,10.0,2.0
3118,63.49651702786378,10.0,2.0
3119,57.45452786377707,10.0,2.0
3120,60.45859133126934,10.0,2.0
3121,61.75019349845203,10.0,2.0
3122,57.981811145510854,10.0,2.0
3123,57.95278637770898,10.0,2.0
3124,52.820239938080505,10.0,2.0
3125,61.827592879256976,10.0,2.0
3126,58.90092879256967,10.0,2.0
3127,59.25406346749226,10.0,2.0
3128,61.30998452012384,10.0,2.0
3129,54.76006191950464,10.0,2.0
3130,52.44775541795666,10.0,2.0
3131,56.743421052631575,10.0,2.0
3132,56.17260061919505,10.0,2.0
3133,62.49516253869968,10.0,2.0
3134,61.26160990712074,10.0,2.0
3135,62.127515479876145,10.0,2.0
3136,60.86493808049536,10.0,2.0
3137,59.196013931888544,10.0,2.0
3138,59.67492260061919,10.0,2.0
3139,60.066756965944265,10.0,2.0
3140,57.11590557275542,10.0,2.0
3141,57.01431888544892,10.0,2.0
3142,62.03076625386996,10.0,2.0
3143,58.21400928792569,10.0,2.0
3144,56.985294117647065,10.0,2.0
3145,60.100619195046434,10.0,2.0
3146,65.53792569659443,10.0,2.0
3147,56.525735294117645,10.0,2.0
3148,59.200851393188856,10.0,2.0
3149,55.524380804953566,10.0,2.0
3150,55.94040247678018,10.0,2.0
3151,60.21671826625387,10.0,2.0
3152,60.56017801857586,10.0,2.0
3153,56.985294117647065,10.0,2.0
3154,58.3059210526316,10.0,2.0
3155,59.79585913312694,10.0,2.0
3156,60.54566563467493,10.0,2.0
3157,57.053018575851404,10.0,2.0
3158,61.348684210526315,10.0,2.0
3159,56.549922600619205,10.0,2.0
3160,58.59616873065015,10.0,2.0
3161,62.18072755417955,10.0,2.0
3162,56.82565789473684,10.0,2.0
3163,60.93266253869968,10.0,2.0
3164,60.18285603715171,10.0,2.0
3165,59.34597523219814,10.0,2.0
3166,61.2954721362229,10.0,2.0
3167,58.223684210526315,10.0,2.0
3168,61.93885448916408,10.0,2.0
3169,57.028831269349844,10.0,2.0
3170,59.63622291021672,10.0,2.0
3171,57.46904024767802,10.0,2.0
3172,56.10971362229103,10.0,2.0
3173,57.12558049535603,10.0,2.0
3174,59.74264705882353,10.0,2.0
3175,62.364551083591344,10.0,2.0
3176,58.881578947368425,10.0,2.0
3177,56.22097523219814,10.0,2.0
3178,56.74825851393189,10.0,2.0
3179,61.0342492260062,10.0,2.0
3180,59.54431114551085,10.0,2.0
3181,58.38332043343653,10.0,2.0
3182,61.774380804953545,10.0,2.0
3183,63.19659442724458,10.0,2.0
3184,58.43653250773993,10.0,2.0
3185,58.75096749226007,10.0,2.0
3186,58.910603715170275,10.0,2.0
3187,60.26025541795666,10.0,2.0
3188,56.206462848297214,10.0,2.0
3189,60.100619195046455,10.0,2.0
3190,60.1296439628483,10.0,2.0
3191,58.38332043343654,10.0,2.0
3192,62.412925696594435,10.0,2.0
3193,58.35429566563466,10.0,2.0
3194,59.49593653250774,10.0,2.0
3195,59.5249613003096,10.0,2.0
3196,55.209945820433454,10.0,2.0
3197,59.22987616099071,10.0,2.0
3198,60.70530185758514,10.0,2.0
3199,57.507739938080505,10.0,2.0
3200,58.38332043343653,10.0,2.0
3201,56.138738390092875,10.0,2.0
3202,58.46071981424149,10.0,2.0
3203,56.23548761609908,10.0,2.0
3204,56.361261609907125,10.0,2.0
3205,56.491873065015476,10.0,2.0
3206,62.28231424148606,10.0,2.0
3207,56.748258513931894,10.0,2.0
3208,63.81095201238389,10.0,2.0
3209,59.2782507739938,10.0,2.0
3210,61.48413312693498,10.0,2.0
3211,62.16621517027865,10.0,2.0
3212,62.55321207430341,10.0,2.0
3213,58.50425696594427,10.0,2.0
3214,61.2906346749226,10.0,2.0
3215,60.50696594427245,10.0,2.0
3216,58.649380804953566,10.0,2.0
3217,58.199496904024755,10.0,2.0
3218,61.82275541795666,10.0,2.0
3219,54.20859133126935,10.0,2.0
3220,58.8186919504644,10.0,2.0
3221,62.040441176470594,10.0,2.0
3222,59.36532507739939,10.0,2.0
3223,61.387383900928796,10.0,2.0
3224,61.38254643962848,10.0,2.0
3225,57.19330495356037,10.0,2.0
3226,55.466331269349844,10.0,2.0
3227,55.69369195046439,10.0,2.0
3228,55.66950464396285,10.0,2.0
3229,58.765479876160995,10.0,2.0
3230,54.80359907120743,10.0,2.0
3231,58.48974458204334,10.0,2.0
3232,60.94233746130032,10.0,2.0
3233,60.4924535603715,10.0,2.0
3234,57.986648606811144,10.0,2.0
3235,57.9237616099071,10.0,2.0
3236,62.848297213622295,10.0,2.0
3237,58.779992260061924,10.0,2.0
3238,56.48703560371517,10.0,2.0
3239,56.87886996904025,10.0,2.0
3240,57.54643962848297,10.0,2.0
3241,57.45936532507739,10.0,2.0
3242,57.32875386996904,10.0,2.0
3243,58.117260061919524,10.0,2.0
3244,57.79798761609908,10.0,2.0
3245,57.41582817337461,10.0,2.0
3246,59.52012383900929,10.0,2.0
3247,57.68188854489164,10.0,2.0
3248,57.44485294117647,10.0,2.0
3249,60.14415634674922,10.0,2.0
3250,56.05166408668732,10.0,2.0
3251,58.22852167182663,10.0,2.0
3252,58.37364551083592,10.0,2.0
3253,60.158668730650156,10.0,2.0
3254,61.33417182662539,10.0,2.0
3255,60.41021671826625,10.0,2.0
3256,57.92859907120743,10.0,2.0
3257,61.95336687306502,10.0,2.0
3258,56.58378482972137,10.0,2.0
3259,57.09171826625387,10.0,2.0
3260,60.11513157894736,10.0,2.0
3261,56.35158668730653,10.0,2.0
3262,59.8200464396285,10.0,2.0
3263,62.97407120743034,10.0,2.0
3264,61.222910216718255,10.0,2.0
3265,60.37151702786376,10.0,2.0
3266,56.58378482972135,10.0,2.0
3267,60.211880804953566,10.0,2.0
3268,58.24787151702787,10.0,2.0
3269,58.649380804953566,10.0,2.0
3270,57.30940402476779,10.0,2.0
3271,57.66737616099071,10.0,2.0
3272,60.327979876161,10.0,2.0
3273,57.449690402476776,10.0,2.0
3274,59.45723684210525,10.0,2.0
3275,61.914667182662534,10.0,2.0
3276,58.083397832817326,10.0,2.0
3277,56.91273219814242,10.0,2.0
3278,56.985294117647065,10.0,2.0
3279,55.77109133126935,10.0,2.0
3280,57.35777863777089,10.0,2.0
3281,59.16215170278638,10.0,2.0
3282,60.81172600619195,10.0,2.0
3283,60.35700464396285,10.0,2.0
3284,60.04256965944273,10.0,2.0
3285,57.76412538699691,10.0,2.0
3286,62.456462848297214,10.0,2.0
3287,59.220201238390075,10.0,2.0
3288,56.308049535603715,10.0,2.0
3289,58.14628482972135,10.0,2.0
3290,57.46904024767802,10.0,2.0
3291,58.34945820433436,10.0,2.0
3292,58.528444272445824,10.0,2.0
3293,61.30998452012384,10.0,2.0
3294,58.044698142414866,10.0,2.0
3295,58.58649380804954,10.0,2.0
3296,61.740518575851404,10.0,2.0
3297,60.31830495356038,10.0,2.0
3298,54.619775541795654,10.0,2.0
3299,58.320433436532504,10.0,2.0
3300,60.26993034055727,10.0,2.0
3301,58.035023219814256,10.0,2.0
3302,58.50909442724458,10.0,2.0
3303,62.3500386996904,10.0,2.0
3304,61.82759287925696,10.0,2.0
3305,56.68537151702787,10.0,2.0
3306,57.60932662538699,10.0,2.0
3307,59.684597523219814,10.0,2.0
3308,61.64376934984521,10.0,2.0
3309,60.26993034055728,10.0,2.0
3310,58.50909442724458,10.0,2.0
3311,61.02457430340558,10.0,2.0
3312,58.886416408668744,10.0,2.0
3313,62.13235294117647,10.0,2.0
3314,60.327979876161,10.0,2.0
3315,59.61203560371517,10.0,2.0
3316,57.628676470588225,10.0,2.0
3317,59.31211300309597,10.0,2.0
3318,62.074303405572756,10.0,2.0
3319,59.616873065015476,10.0,2.0
3320,58.92027863777089,10.0,2.0
3321,55.78076625386997,10.0,2.0
3322,62.50483746130032,10.0,2.0
3323,55.76141640866873,10.0,2.0
3324,57.986648606811144,10.0,2.0
3325,61.06811145510836,10.0,2.0
3326,56.206462848297214,10.0,2.0
3327,60.31346749226007,10.0,2.0
3328,59.76199690402477,10.0,2.0
3329,59.5249613003096,10.0,2.0
3330,56.90789473684211,10.0,2.0
3331,58.6203560371517,10.0,2.0
3332,62.86280959752324,10.0,2.0
3333,62.05979102167183,10.0,2.0
3334,59.196013931888544,10.0,2.0
3335,56.71923374613004,10.0,2.0
3336,57.84152476780185,10.0,2.0
3337,59.196013931888544,10.0,2.0
3338,60.7875386996904,10.0,2.0
3339,58.79934210526316,10.0,2.0
3340,64.27051083591331,10.0,2.0
3341,56.308049535603715,10.0,2.0
3342,56.93691950464397,10.0,2.0
3343,55.76141640866873,10.0,2.0
3344,58.85255417956657,10.0,2.0
3345,58.85255417956657,10.0,2.0
3346,60.93266253869968,10.0,2.0
3347,58.25754643962848,10.0,2.0
3348,60.72465170278638,10.0,2.0
3349,60.99071207430341,10.0,2.0
3350,53.40073529411765,10.0,2.0
3351,58.13660990712074,10.0,2.0
3352,59.974845201238395,10.0,2.0
3353,58.8186919504644,10.0,2.0
3354,61.91466718266254,10.0,2.0
3355,58.334945820433425,10.0,2.0
3356,61.46962074303407,10.0,2.0
3357,59.099264705882355,10.0,2.0
3358,60.67143962848297,10.0,2.0
3359,58.28657120743034,10.0,2.0
3360,58.53328173374613,10.0,2.0
3361,60.29895510835914,10.0,2.0
3362,62.49032507739939,10.0,2.0
3363,55.97910216718265,10.0,2.0
3364,58.93962848297215,10.0,2.0
3365,56.066176470588225,10.0,2.0
3366,57.04334365325078,10.0,2.0
3367,56.607972136222905,10.0,2.0
3368,65.91524767801856,10.0,2.0
3369,59.17182662538701,10.0,2.0
3370,58.50425696594427,10.0,2.0
3371,59.099264705882355,10.0,2.0
3372,65.15576625386997,10.0,2.0
3373,59.176664086687296,10.0,2.0
3374,53.40073529411765,10.0,2.0
3375,58.02051083591331,10.0,2.0
3376,60.090944272445824,10.0,2.0
3377,58.10274767801858,10.0,2.0
3378,57.628676470588246,10.0,2.0
3379,59.239551083591344,10.0,2.0
3380,55.68885448916409,10.0,2.0
3381,58.78482972136222,10.0,2.0
3382,63.39976780185759,10.0,2.0
3383,60.511803405572756,10.0,2.0
3384,62.87732198142415,10.0,2.0
3385,59.47174922600618,10.0,2.0
3386,57.41582817337461,10.0,2.0
3387,57.981811145510825,10.0,2.0
3388,56.786958204334354,10.0,2.0
3389,60.37635448916408,10.0,2.0
3390,56.874032507739926,10.0,2.0
3391,55.50503095975233,10.0,2.0
3392,60.652089783281745,10.0,2.0
3393,59.999032507739926,10.0,2.0
3394,61.46962074303407,10.0,2.0
3395,62.558049535603715,10.0,2.0
3396,57.76412538699691,10.0,2.0
3397,55.87267801857586,10.0,2.0
3398,59.191176470588246,10.0,2.0
3399,60.94233746130032,10.0,2.0
3400,64.84616873065015,10.0,2.0
3401,62.82410990712074,10.0,2.0
3402,57.51741486068111,10.0,2.0
3403,58.80417956656347,10.0,2.0
3404,57.83184984520125,10.0,2.0
3405,56.554760061919495,10.0,2.0
3406,60.45859133126935,10.0,2.0
3407,57.58513931888545,10.0,2.0
3408,58.533281733746136,10.0,2.0
3409,59.59268575851393,10.0,2.0
3410,56.598297213622295,10.0,2.0
3411,62.325851393188856,10.0,2.0
3412,61.977554179566546,10.0,2.0
3413,62.15170278637772,10.0,2.0
3414,58.750967492260074,10.0,2.0
3415,62.964396284829725,10.0,2.0
3416,62.27747678018576,10.0,2.0
3417,57.54643962848297,10.0,2.0
3418,58.32527089783282,10.0,2.0
3419,58.84287925696595,10.0,2.0
3420,59.307275541795654,10.0,2.0
3421,55.60178018575851,10.0,2.0
3422,58.446207430340564,10.0,2.0
3423,58.223684210526294,10.0,2.0
3424,58.33010835913313,10.0,2.0
3425,56.9562693498452,10.0,2.0
3426,60.55050309597523,10.0,2.0
3427,56.535410216718255,10.0,2.0
3428,58.55746904024768,10.0,2.0
3429,59.800696594427244,10.0,2.0
3430,58.85739164086689,10.0,2.0
3431,60.97619969040248,10.0,2.0
3432,58.89609133126936,10.0,2.0
3433,55.16157120743034,10.0,2.0
3434,58.04953560371517,10.0,2.0
3435,54.880998452012385,10.0,2.0
3436,59.33630030959753,10.0,2.0
3437,61.89531733746129,10.0,2.0
3438,53.758707430340536,10.0,2.0
3439,55.91137770897833,10.0,2.0
3440,56.53541021671828,10.0,2.0
3441,54.69717492260061,10.0,2.0
3442,57.29489164086687,10.0,2.0
3443,54.276315789473685,10.0,2.0
3444,55.287345201238395,10.0,2.0
3445,61.6921439628483,10.0,2.0
3446,57.120743034055735,10.0,2.0
3447,56.18711300309597,10.0,2.0
3448,61.38254643962848,10.0,2.0
3449,56.87886996904025,10.0,2.0
3450,58.881578947368425,10.0,2.0
3451,52.297794117647065,10.0,2.0
3452,60.9375,10.0,2.0
3453,62.08397832817338,10.0,2.0
3454,60.01354489164086,10.0,2.0
3455,54.890673374613,10.0,2.0
3456,59.69910990712074,10.0,2.0
3457,58.95414086687306,10.0,2.0
3458,60.26509287925696,10.0,2.0
3459,55.272832817337466,10.0,2.0
3460,55.345394736842096,10.0,2.0
3461,54.46013931888544,10.0,2.0
3462,56.317724458204324,10.0,2.0
3463,56.87886996904025,10.0,2.0
3464,59.544311145510825,10.0,2.0
3465,61.784055727554176,10.0,2.0
3466,59.118614551083596,10.0,2.0
3467,62.04527863777089,10.0,2.0
3468,58.305921052631575,10.0,2.0
3469,60.03773219814242,10.0,2.0
3470,62.07914086687306,10.0,2.0
3471,59.71845975232198,10.0,2.0
3472,60.323142414860676,10.0,2.0
3473,58.760642414860676,10.0,2.0
3474,58.6687306501548,10.0,2.0
3475,60.92782507739939,10.0,2.0
3476,60.424729102167184,10.0,2.0
3477,57.86087461300309,10.0,2.0
3478,54.57140092879257,10.0,2.0
3479,62.229102167182646,10.0,2.0
3480,56.1000386996904,10.0,2.0
3481,56.69020897832817,10.0,2.0
3482,60.49245356037152,10.0,2.0
3483,59.53947368421054,10.0,2.0
3484,60.41021671826625,10.0,2.0
3485,57.870549535603715,10.0,2.0
3486,57.096555727554176,10.0,2.0
3487,60.36667956656347,10.0,2.0
3488,58.34945820433436,10.0,2.0
3489,56.699883900928796,10.0,2.0
3490,58.010835913312704,10.0,2.0
3491,58.015673374613,10.0,2.0
3492,57.32391640866873,10.0,2.0
3493,55.514705882352935,10.0,2.0
3494,55.55340557275542,10.0,2.0
3495,62.543537151702786,10.0,2.0
3496,58.03018575851394,10.0,2.0
3497,58.8815789473684,10.0,2.0
3498,56.554760061919495,10.0,2.0
3499,62.325851393188856,10.0,2.0
3500,57.07236842105264,10.0,2.0
3501,62.50967492260061,10.0,2.0
3502,63.26915634674923,10.0,2.0
3503,59.88777089783282,10.0,2.0
3504,57.74477554179568,10.0,2.0
3505,61.22774767801857,10.0,2.0
3506,54.702012383900936,10.0,2.0
3507,57.11106811145512,10.0,2.0
3508,60.032894736842096,10.0,2.0
3509,58.50909442724458,10.0,2.0
3510,59.64106037151703,10.0,2.0
3511,56.40963622291022,10.0,2.0
3512,62.41292569659442,10.0,2.0
3513,59.58784829721362,10.0,2.0
3514,57.793150154798745,10.0,2.0
3515,60.96652476780186,10.0,2.0
3516,55.55340557275542,10.0,2.0
3517,62.093653250774004,10.0,2.0
3518,58.010835913312704,10.0,2.0
3519,57.49806501547988,10.0,2.0
3520,53.40073529411765,10.0,2.0
3521,59.49109907120743,10.0,2.0
3522,62.151702786377705,10.0,2.0
3523,55.56308049535605,10.0,2.0
3524,55.98393962848298,10.0,2.0
3525,56.569272445820424,10.0,2.0
3526,59.94098297213623,10.0,2.0
3527,60.74883900928793,10.0,2.0
3528,60.83107585139319,10.0,2.0
3529,52.7670278637771,10.0,2.0
3530,57.633513931888544,10.0,2.0
3531,59.433049535603715,10.0,2.0
3532,59.61203560371517,10.0,2.0
3533,61.309984520123855,10.0,2.0
3534,57.140092879256976,10.0,2.0
3535,56.94175696594428,10.0,2.0
3536,58.51393188854488,10.0,2.0
3537,57.91892414860681,10.0,2.0
3538,62.42260061919506,10.0,2.0
3539,60.216718266253864,10.0,2.0
3540,62.3500386996904,10.0,2.0
3541,56.308049535603715,10.0,2.0
3542,58.33978328173375,10.0,2.0
3543,56.7579334365325,10.0,2.0
3544,59.41369969040248,10.0,2.0
3545,54.66815015479875,10.0,2.0
3546,55.050309597523224,10.0,2.0
3547,60.16834365325077,10.0,2.0
3548,55.82914086687306,10.0,2.0
3549,58.47523219814241,10.0,2.0
3550,55.471168730650156,10.0,2.0
3551,58.45588235294117,10.0,2.0
3552,62.03560371517027,10.0,2.0
3553,62.9450464396285,10.0,2.0
3554,61.764705882352935,10.0,2.0
3555,59.39918730650156,10.0,2.0
3556,59.53463622291022,10.0,2.0
3557,56.37093653250774,10.0,2.0
3558,54.997097523219814,10.0,2.0
3559,60.49729102167183,10.0,2.0
3560,60.33765479876162,10.0,2.0
3561,58.15112229102167,10.0,2.0
3562,59.89260835913314,10.0,2.0
3563,63.52070433436533,10.0,2.0
3564,58.07856037151702,10.0,2.0
3565,52.718653250774004,10.0,2.0
3566,60.845588235294116,10.0,2.0
3567,59.549148606811144,10.0,2.0
3568,54.45530185758514,10.0,2.0
3569,59.442724458204324,10.0,2.0
3570,64.27051083591331,10.0,2.0
3571,56.961106811145505,10.0,2.0
3572,62.26780185758514,10.0,2.0
3573,58.49458204334365,10.0,2.0
3574,62.18556501547988,10.0,2.0
3575,62.36938854489164,10.0,2.0
3576,61.40189628482973,10.0,2.0
3577,56.22581269349845,10.0,2.0
3578,60.26509287925696,10.0,2.0
3579,59.72813467492261,10.0,2.0
3580,58.93479102167183,10.0,2.0
3581,56.67085913312694,10.0,2.0
3582,58.15595975232197,10.0,2.0
3583,61.82275541795668,10.0,2.0
3584,55.437306501548,10.0,2.0
3585,55.563080495356026,10.0,2.0
3586,61.26644736842106,10.0,2.0
3587,58.533281733746115,10.0,2.0
3588,56.206462848297214,10.0,2.0
3589,56.87886996904026,10.0,2.0
3590,60.032894736842096,10.0,2.0
3591,60.236068111455104,10.0,2.0
3592,59.05572755417956,10.0,2.0
3593,60.265092879256976,10.0,2.0
3594,60.94717492260061,10.0,2.0
3595,61.638931888544896,10.0,2.0
3596,60.473103715170275,10.0,2.0
3597,53.55069659442725,10.0,2.0
3598,57.18846749226007,10.0,2.0
3599,60.981037151702786,10.0,2.0
3600,59.800696594427244,10.0,2.0
3601,60.28928018575851,10.0,2.0
3602,59.40402476780186,10.0,2.0
3603,55.78076625386997,10.0,2.0
3604,56.191950464396285,10.0,2.0
3605,58.24787151702785,10.0,2.0
3606,60.49245356037152,10.0,2.0
3607,57.60932662538699,10.0,2.0
3608,55.96942724458204,10.0,2.0
3609,60.05224458204334,10.0,2.0
3610,60.211880804953566,10.0,2.0
3611,58.82836687306502,10.0,2.0
3612,55.88235294117647,10.0,2.0
3613,61.47929566563466,10.0,2.0
3614,59.65073529411766,10.0,2.0
3615,61.15034829721361,10.0,2.0
3616,58.03018575851394,10.0,2.0
3617,58.596168730650156,10.0,2.0
3618,59.86358359133127,10.0,2.0
3619,54.26664086687306,10.0,2.0
3620,58.528444272445824,10.0,2.0
3621,54.90034829721362,10.0,2.0
3622,55.58243034055728,10.0,2.0
3623,58.175309597523224,10.0,2.0
3624,62.97407120743034,10.0,2.0
3625,54.77457430340557,10.0,2.0
3626,59.9313080495356,10.0,2.0
3627,61.426083591331256,10.0,2.0
3628,58.44620743034055,10.0,2.0
3629,59.60719814241486,10.0,2.0
3630,61.18421052631579,10.0,2.0
3631,60.26025541795666,10.0,2.0
3632,55.44214396284831,10.0,2.0
3633,64.04315015479878,10.0,2.0
3634,56.98045665634675,10.0,2.0
3635,53.86513157894736,10.0,2.0
3636,58.47523219814242,10.0,2.0
3637,60.27960526315789,10.0,2.0
3638,59.18633900928793,10.0,2.0
3639,58.538119195046455,10.0,2.0
3640,61.09713622291022,10.0,2.0
3641,60.153831269349844,10.0,2.0
3642,58.03986068111456,10.0,2.0
3643,57.3045665634675,10.0,2.0
3644,58.005998452012385,10.0,2.0
3645,60.008707430340564,10.0,2.0
3646,60.77786377708978,10.0,2.0
3647,55.60661764705882,10.0,2.0
3648,57.43517801857586,10.0,2.0
3649,58.538119195046434,10.0,2.0
3650,58.1704721362229,10.0,2.0
3651,56.883707430340564,10.0,2.0
3652,56.138738390092875,10.0,2.0
3653,61.1455108359133,10.0,2.0
3654,58.6735681114551,10.0,2.0
3655,60.00386996904025,10.0,2.0
3656,54.972910216718276,10.0,2.0
3657,57.32391640866873,10.0,2.0
3658,54.75522445820432,10.0,2.0
3659,62.42260061919505,10.0,2.0
3660,59.06540247678018,10.0,2.0
3661,58.46071981424149,10.0,2.0
3662,60.265092879256976,10.0,2.0
3663,60.71981424148606,10.0,2.0
3664,54.54721362229103,10.0,2.0
3665,60.642414860681114,10.0,2.0
3666,57.19330495356037,10.0,2.0
3667,59.49593653250774,10.0,2.0
3668,56.76760835913313,10.0,2.0
3669,54.706849845201255,10.0,2.0
3670,61.51315789473685,10.0,2.0
3671,59.099264705882355,10.0,2.0
3672,62.983746130030966,10.0,2.0
3673,57.37712848297215,10.0,2.0
3674,63.49167956656346,10.0,2.0
3675,59.660410216718255,10.0,2.0
3676,54.61010061919505,10.0,2.0
3677,58.06404798761611,10.0,2.0
3678,58.00116099071208,10.0,2.0
3679,59.81037151702785,10.0,2.0
3680,60.893962848297214,10.0,2.0
3681,62.05495356037152,10.0,2.0
3682,64.35758513931887,10.0,2.0
3683,54.880998452012385,10.0,2.0
3684,59.30243808049536,10.0,2.0
3685,61.827592879256976,10.0,2.0
3686,55.751741486068106,10.0,2.0
3687,57.54160216718265,10.0,2.0
3688,59.44756191950464,10.0,2.0
3689,59.200851393188856,10.0,2.0
3690,59.200851393188856,10.0,2.0
3691,59.989357585139324,10.0,2.0
3692,58.310758513931894,10.0,2.0
3693,54.35371517027865,10.0,2.0
3694,60.63757739938081,10.0,2.0
3695,57.69640092879257,10.0,2.0
3696,60.429566563467496,10.0,2.0
3697,58.80417956656347,10.0,2.0
3698,60.24090557275542,10.0,2.0
3699,55.18575851393189,10.0,2.0
3700,58.60584365325078,10.0,2.0
3701,61.82759287925696,10.0,2.0
3702,57.72542569659443,10.0,2.0
3703,58.484907120743024,10.0,2.0
3704,61.672794117647065,10.0,2.0
3705,61.95336687306502,10.0,2.0
3706,57.14976780185759,10.0,2.0
3707,60.893962848297214,10.0,2.0
3708,56.66602167182663,10.0,2.0
3709,58.86222910216718,10.0,2.0
3710,55.838815789473685,10.0,2.0
3711,54.52302631578947,10.0,2.0
3712,65.39280185758514,10.0,2.0
3713,59.03637770897833,10.0,2.0
3714,66.10874613003095,10.0,2.0
3715,59.58784829721362,10.0,2.0
3716,59.06056501547988,10.0,2.0
3717,60.8891253869969,10.0,2.0
3718,57.202979876161,10.0,2.0
3719,56.27902476780186,10.0,2.0
3720,61.90015479876162,10.0,2.0
3721,57.028831269349844,10.0,2.0
3722,60.27476780185759,10.0,2.0
3723,59.31211300309597,10.0,2.0
3724,61.80340557275543,10.0,2.0
3725,55.640479876161,10.0,2.0
3726,58.717105263157904,10.0,2.0
3727,57.68188854489164,10.0,2.0
3728,61.66795665634675,10.0,2.0
3729,54.189241486068106,10.0,2.0
3730,57.95278637770898,10.0,2.0
3731,57.96729876160991,10.0,2.0
3732,56.35158668730651,10.0,2.0
3733,54.90518575851394,10.0,2.0
3734,59.65557275541796,10.0,2.0
3735,58.243034055727556,10.0,2.0
3736,57.36745356037152,10.0,2.0
3737,58.89125386996904,10.0,2.0
3738,58.10758513931889,10.0,2.0
3739,61.672794117647065,10.0,2.0
3740,63.14338235294116,10.0,2.0
3741,58.35429566563467,10.0,2.0
3742,58.83320433436532,10.0,2.0
3743,58.591331269349844,10.0,2.0
3744,56.08552631578947,10.0,2.0
3745,56.874032507739926,10.0,2.0
3746,63.93672600619195,10.0,2.0
3747,58.85739164086687,10.0,2.0
3748,59.49109907120743,10.0,2.0
3749,53.63777089783282,10.0,2.0
3750,62.093653250773976,10.0,2.0
3751,53.937693498452006,10.0,2.0
3752,58.35429566563467,10.0,2.0
3753,55.67917956656347,10.0,2.0
3754,60.10545665634675,10.0,2.0
3755,60.153831269349844,10.0,2.0
3756,57.64802631578946,10.0,2.0
3757,58.83804179566564,10.0,2.0
