sample_id,accuracy,window_size
0,58.43653250773993,10.0
1,55.31636996904025,10.0
2,60.94717492260061,10.0
3,60.202205882352935,10.0
4,59.365325077399376,10.0
5,57.45452786377707,10.0
6,60.531153250774,10.0
7,57.86571207430341,10.0
8,58.40750773993808,10.0
9,56.9030572755418,10.0
10,62.20007739938081,10.0
11,57.26586687306502,10.0
12,56.68537151702786,10.0
13,55.21478328173375,10.0
14,56.85468266253869,10.0
15,56.16292569659443,10.0
16,55.843653250774004,10.0
17,54.36822755417956,10.0
18,60.3328173374613,10.0
19,56.16776315789474,10.0
20,58.34945820433437,10.0
21,56.06133900928792,10.0
22,54.344040247678016,10.0
23,56.07101393188855,10.0
24,55.86784055727554,10.0
25,59.616873065015476,10.0
26,61.07778637770898,10.0
27,57.212654798761605,10.0
28,58.18498452012383,10.0
29,54.17956656346749,10.0
30,58.48006965944273,10.0
31,55.49051857585139,10.0
32,56.41931114551083,10.0
33,54.61493808049536,10.0
34,58.015673374612994,10.0
35,57.430340557275535,10.0
36,56.87403250773993,10.0
37,57.1594427244582,10.0
38,56.62732198142415,10.0
39,60.79721362229103,10.0
40,55.93556501547987,10.0
41,57.73026315789474,10.0
42,57.12558049535604,10.0
43,57.86087461300309,10.0
44,60.294117647058826,10.0
45,61.83726780185757,10.0
46,62.01625386996904,10.0
47,59.2250386996904,10.0
48,57.29972910216719,10.0
49,54.62461300309598,10.0
50,58.70743034055727,10.0
51,57.55127708978329,10.0
52,57.13041795665635,10.0
53,57.73993808049536,10.0
54,56.16292569659443,10.0
55,55.97910216718267,10.0
56,60.908475232198136,10.0
57,59.80069659442725,10.0
58,59.70394736842104,10.0
59,59.30727554179567,10.0
60,57.3577786377709,10.0
61,58.7219427244582,10.0
62,60.139318885448915,10.0
63,60.3328173374613,10.0
64,55.97910216718267,10.0
65,62.51451238390094,10.0
66,57.07720588235294,10.0
67,60.057082043343655,10.0
68,59.95549535603715,10.0
69,56.21130030959753,10.0
70,52.96052631578946,10.0
71,55.248645510835914,10.0
72,56.99013157894737,10.0
73,53.618421052631575,10.0
74,61.421246130030966,10.0
75,57.62867647058823,10.0
76,57.37229102167183,10.0
77,56.34674922600619,10.0
78,58.89609133126936,10.0
79,57.706075851393194,10.0
80,58.71226780185758,10.0
81,56.46284829721362,10.0
82,57.39164086687307,10.0
83,56.7047213622291,10.0
84,59.82972136222911,10.0
85,58.61068111455108,10.0
86,57.720588235294116,10.0
87,56.31288699690403,10.0
88,55.23413312693498,10.0
89,59.59268575851392,10.0
90,57.69640092879257,10.0
91,57.648026315789465,10.0
92,55.11803405572755,10.0
93,57.70607585139318,10.0
94,53.21207430340558,10.0
95,61.934017027863774,10.0
96,58.373645510835914,10.0
97,62.708010835913306,10.0
98,56.06617647058823,10.0
99,57.54160216718266,10.0
100,58.06404798761611,10.0
101,56.965944272445824,10.0
102,63.38525541795666,10.0
103,60.753676470588246,10.0
104,60.82140092879257,10.0
105,59.91679566563467,10.0
106,58.8235294117647,10.0
107,57.681888544891635,10.0
108,62.59674922600619,10.0
109,58.2672213622291,10.0
110,60.652089783281724,10.0
111,57.64802631578947,10.0
112,57.93343653250775,10.0
113,60.637577399380795,10.0
114,52.12848297213621,10.0
115,56.62248452012384,10.0
116,59.37016253869968,10.0
117,57.183630030959755,10.0
118,56.20646284829722,10.0
119,56.815982972136226,10.0
120,57.04818111455109,10.0
121,58.838041795665646,10.0
122,55.548568111455104,10.0
123,61.40673374613002,10.0
124,57.64802631578948,10.0
125,56.428986068111456,10.0
126,57.14009287925697,10.0
127,55.25348297213622,10.0
128,56.627321981424146,10.0
129,55.07449690402478,10.0
130,57.12074303405573,10.0
131,60.41989164086687,10.0
132,55.95007739938081,10.0
133,62.98374613003096,10.0
134,60.98587461300309,10.0
135,56.99013157894736,10.0
136,58.5187693498452,10.0
137,61.42608359133126,10.0
138,58.58165634674922,10.0
139,56.912732198142415,10.0
140,59.15731424148606,10.0
141,58.562306501547994,10.0
142,62.3935758513932,10.0
143,61.93401702786376,10.0
144,61.300309597523224,10.0
145,57.56095201238389,10.0
146,58.813854489164086,10.0
147,55.52438080495356,10.0
148,60.642414860681114,10.0
149,58.61068111455109,10.0
150,60.95684984520124,10.0
151,57.25619195046439,10.0
152,61.484133126934985,10.0
153,61.14551083591332,10.0
154,61.05843653250775,10.0
155,60.927825077399376,10.0
156,57.149767801857585,10.0
157,53.91350619195046,10.0
158,62.37906346749225,10.0
159,60.371517027863774,10.0
160,57.35777863777089,10.0
161,60.52147832817337,10.0
162,58.83320433436532,10.0
163,61.363196594427244,10.0
164,60.52147832817337,10.0
165,60.74883900928791,10.0
166,56.332236842105274,10.0
167,57.585139318885446,10.0
168,54.595588235294116,10.0
169,59.77167182662539,10.0
170,58.30592105263158,10.0
171,58.61551857585138,10.0
172,62.93537151702785,10.0
173,60.453753869969034,10.0
174,60.15866873065016,10.0
175,61.213235294117645,10.0
176,60.226393188854495,10.0
177,57.84636222910216,10.0
178,61.629256965944265,10.0
179,53.13951238390092,10.0
180,56.91756965944272,10.0
181,55.32604489164086,10.0
182,60.41021671826625,10.0
183,58.91060371517028,10.0
184,60.995549535603715,10.0
185,62.732198142414866,10.0
186,57.42550309597523,10.0
187,58.397832817337466,10.0
188,53.47813467492261,10.0
189,64.74941950464397,10.0
190,56.612809597523224,10.0
191,62.36938854489164,10.0
192,60.942337461300305,10.0
193,59.9796826625387,10.0
194,59.86842105263157,10.0
195,56.390286377708975,10.0
196,63.60294117647057,10.0
197,58.63970588235294,10.0
198,62.02592879256966,10.0
199,57.309404024767794,10.0
200,57.24167956656346,10.0
201,61.242260061919495,10.0
202,57.14493034055727,10.0
203,59.79102167182663,10.0
204,61.07778637770898,10.0
205,60.67627708978327,10.0
206,59.87809597523219,10.0
207,56.62248452012384,10.0
208,55.016447368421055,10.0
209,55.82914086687306,10.0
210,55.12770897832817,10.0
211,59.12828947368421,10.0
212,61.90982972136224,10.0
213,55.05514705882353,10.0
214,60.182856037151694,10.0
215,59.19117647058823,10.0
216,62.0984907120743,10.0
217,61.01006191950464,10.0
218,61.527670278637785,10.0
219,57.14493034055728,10.0
220,57.46420278637771,10.0
221,58.87190402476781,10.0
222,55.0890092879257,10.0
223,58.50909442724458,10.0
224,56.96110681114551,10.0
225,60.10061919504644,10.0
226,57.0046439628483,10.0
227,56.07585139318886,10.0
228,61.04392414860681,10.0
229,59.38467492260061,10.0
230,58.16563467492261,10.0
231,63.52070433436532,10.0
232,58.79450464396285,10.0
233,59.181501547987615,10.0
234,59.800696594427244,10.0
235,63.907701238390096,10.0
236,61.33417182662538,10.0
237,56.743421052631575,10.0
238,59.84423374613004,10.0
239,58.15595975232198,10.0
240,57.14009287925697,10.0
241,59.12828947368421,10.0
242,58.141447368421055,10.0
243,60.908475232198136,10.0
244,60.32314241486068,10.0
245,59.553986068111456,10.0
246,62.95472136222911,10.0
247,56.17743808049536,10.0
248,59.15731424148607,10.0
249,61.04392414860681,10.0
250,58.794504643962846,10.0
251,57.33842879256966,10.0
252,56.68053405572756,10.0
253,59.800696594427244,10.0
254,59.41853715170279,10.0
255,59.737809597523224,10.0
256,60.66660216718266,10.0
257,58.52844427244582,10.0
258,59.79585913312694,10.0
259,57.99148606811145,10.0
260,57.25135448916408,10.0
261,59.43304953560372,10.0
262,60.65208978328174,10.0
263,61.4889705882353,10.0
264,56.627321981424146,10.0
265,58.03502321981425,10.0
266,59.389512383900936,10.0
267,63.81578947368422,10.0
268,56.714396284829725,10.0
269,58.89125386996904,10.0
270,61.55185758513932,10.0
271,57.73026315789474,10.0
272,61.576044891640855,10.0
273,58.57198142414861,10.0
274,59.54914860681115,10.0
275,61.42608359133128,10.0
276,61.76470588235294,10.0
277,58.451044891640855,10.0
278,56.743421052631575,10.0
279,68.07759287925695,10.0
280,60.86010061919505,10.0
281,59.612035603715164,10.0
282,60.77302631578947,10.0
283,59.21052631578947,10.0
284,58.48006965944272,10.0
285,65.34442724458205,10.0
286,57.44001547987616,10.0
287,56.58378482972136,10.0
288,56.25,10.0
289,59.824883900928796,10.0
290,58.494582043343655,10.0
291,58.0640479876161,10.0
292,54.50367647058823,10.0
293,58.88641640866872,10.0
294,56.77244582043344,10.0
295,62.732198142414866,10.0
296,59.79102167182663,10.0
297,60.76818885448917,10.0
298,57.125580495356026,10.0
299,59.71362229102167,10.0
300,58.165634674922615,10.0
301,60.27960526315789,10.0
302,55.24864551083592,10.0
303,57.86087461300309,10.0
304,59.273413312693506,10.0
305,60.139318885448915,10.0
306,53.03308823529411,10.0
307,60.89396284829722,10.0
308,59.68943498452012,10.0
309,57.362616099071204,10.0
310,60.42956656346749,10.0
311,57.328753869969034,10.0
312,58.509094427244584,10.0
313,58.52844427244582,10.0
314,59.94582043343653,10.0
315,58.19949690402477,10.0
316,57.83184984520125,10.0
317,59.1234520123839,10.0
318,61.57604489164087,10.0
319,57.02883126934985,10.0
320,55.596942724458195,10.0
321,53.216911764705884,10.0
322,55.10835913312695,10.0
323,55.73239164086687,10.0
324,60.487616099071204,10.0
325,56.782120743034056,10.0
326,61.79856811145511,10.0
327,56.66118421052631,10.0
328,60.071594427244584,10.0
329,59.0750773993808,10.0
330,59.95549535603715,10.0
331,60.80688854489164,10.0
332,55.06482198142414,10.0
333,59.20085139318886,10.0
334,55.69852941176471,10.0
335,58.90576625386996,10.0
336,60.574690402476776,10.0
337,62.42260061919505,10.0
338,60.21188080495356,10.0
339,58.65421826625387,10.0
340,57.78347523219815,10.0
341,56.6515092879257,10.0
342,55.02612229102167,10.0
343,62.63544891640868,10.0
344,58.1124226006192,10.0
345,59.732972136222905,10.0
346,56.95143188854489,10.0
347,57.135255417956664,10.0
348,54.295665634674926,10.0
349,57.31907894736842,10.0
350,57.101393188854495,10.0
351,60.77302631578947,10.0
352,58.562306501547994,10.0
353,57.43517801857586,10.0
354,57.96729876160991,10.0
355,59.07507739938081,10.0
356,56.31288699690402,10.0
357,59.752321981424146,10.0
358,60.89396284829722,10.0
359,57.77863777089783,10.0
360,61.72116873065016,10.0
361,60.913312693498455,10.0
362,60.45375386996904,10.0
363,60.110294117647065,10.0
364,57.92859907120743,10.0
365,63.33204334365325,10.0
366,55.56791795665635,10.0
367,57.96729876160991,10.0
368,63.815789473684205,10.0
369,58.90092879256966,10.0
370,61.150348297213625,10.0
371,58.77515479876161,10.0
372,58.4703947368421,10.0
373,54.5859133126935,10.0
374,57.64318885448917,10.0
375,57.41099071207431,10.0
376,57.95762383900929,10.0
377,57.76412538699691,10.0
378,62.32585139318888,10.0
379,60.04256965944271,10.0
380,61.35835913312694,10.0
381,57.83184984520124,10.0
382,61.36803405572755,10.0
383,59.97000773993808,10.0
384,60.173181114551085,10.0
385,61.06327399380805,10.0
386,60.66660216718266,10.0
387,57.98664860681115,10.0
388,58.238196594427244,10.0
389,55.85332817337462,10.0
390,57.9624613003096,10.0
391,53.90866873065016,10.0
392,61.66795665634674,10.0
393,61.68246904024768,10.0
394,55.77109133126935,10.0
395,57.54160216718266,10.0
396,57.541602167182674,10.0
397,63.414280185758514,10.0
398,58.122097523219814,10.0
399,56.830495356037154,10.0
400,60.28928018575851,10.0
401,62.41776315789473,10.0
402,61.276122291021665,10.0
403,57.02399380804953,10.0
404,57.73026315789474,10.0
405,59.5249613003096,10.0
406,57.0578560371517,10.0
407,62.81927244582043,10.0
408,61.37770897832817,10.0
409,54.65363777089783,10.0
410,62.08397832817338,10.0
411,57.67705108359133,10.0
412,59.49109907120743,10.0
413,60.80688854489164,10.0
414,64.5607585139319,10.0
415,60.71981424148606,10.0
416,63.109520123839005,10.0
417,55.93556501547988,10.0
418,55.70336687306502,10.0
419,57.299729102167184,10.0
420,52.04140866873065,10.0
421,65.218653250774,10.0
422,59.87809597523219,10.0
423,59.10410216718266,10.0
424,58.28657120743034,10.0
425,59.113777089783284,10.0
426,58.789667182662534,10.0
427,62.62577399380804,10.0
428,62.29198916408671,10.0
429,59.55882352941177,10.0
430,60.913312693498455,10.0
431,61.62925696594428,10.0
432,57.575464396284836,10.0
433,60.26509287925696,10.0
434,62.24361455108359,10.0
435,59.38467492260062,10.0
436,58.276896284829725,10.0
437,62.0404411764706,10.0
438,56.71923374613002,10.0
439,61.6486068111455,10.0
440,60.11029411764706,10.0
441,54.65363777089782,10.0
442,57.78831269349845,10.0
443,60.44407894736842,10.0
444,59.53947368421053,10.0
445,62.63061145510837,10.0
446,60.869775541795676,10.0
447,60.06191950464396,10.0
448,56.24032507739938,10.0
449,54.63428792569659,10.0
450,56.03715170278639,10.0
451,59.046052631578945,10.0
452,55.27767027863777,10.0
453,60.913312693498455,10.0
454,65.73626160990712,10.0
455,56.912732198142415,10.0
456,57.09655572755418,10.0
457,56.757933436532504,10.0
458,60.879450464396285,10.0
459,57.478715170278626,10.0
460,60.19253095975232,10.0
461,61.44543343653251,10.0
462,54.36339009287925,10.0
463,55.61629256965944,10.0
464,58.81869195046439,10.0
465,58.39299535603715,10.0
466,60.545665634674926,10.0
467,58.42202012383901,10.0
468,56.3999613003096,10.0
469,60.22155572755418,10.0
470,59.413699690402474,10.0
471,58.58165634674923,10.0
472,61.140673374613,10.0
473,59.718459752321984,10.0
474,57.79315015479876,10.0
475,57.40615325077399,10.0
476,60.56017801857586,10.0
477,57.415828173374614,10.0
478,59.82972136222911,10.0
479,54.76973684210526,10.0
480,60.1828560371517,10.0
481,58.59616873065015,10.0
482,59.21536377708978,10.0
483,56.67569659442724,10.0
484,60.04740712074304,10.0
485,64.07701238390094,10.0
486,61.09713622291022,10.0
487,54.81327399380805,10.0
488,56.525735294117645,10.0
489,58.68324303405573,10.0
490,55.92105263157895,10.0
491,55.742066563467496,10.0
492,58.73645510835914,10.0
493,60.390866873065015,10.0
494,57.89473684210526,10.0
495,60.74883900928793,10.0
496,62.12267801857586,10.0
497,60.187693498452006,10.0
498,58.07856037151703,10.0
499,59.56849845201239,10.0
500,57.851199690402474,10.0
501,59.099264705882355,10.0
502,59.583010835913306,10.0
503,58.344620743034056,10.0
504,56.59345975232197,10.0
505,58.39783281733747,10.0
506,60.79237616099071,10.0
507,61.556695046439636,10.0
508,57.686726006191954,10.0
509,54.29082817337461,10.0
510,58.34462074303405,10.0
511,54.880998452012385,10.0
512,57.885061919504636,10.0
513,56.34191176470589,10.0
514,58.43653250773994,10.0
515,56.293537151702786,10.0
516,57.91408668730651,10.0
517,56.158088235294116,10.0
518,58.155959752321984,10.0
519,60.81172600619196,10.0
520,58.49941950464397,10.0
521,59.278250773993804,10.0
522,56.182275541795676,10.0
523,56.86435758513932,10.0
524,57.80766253869969,10.0
525,61.35352167182662,10.0
526,59.766834365325074,10.0
527,59.5733359133127,10.0
528,57.45936532507739,10.0
529,61.07294891640866,10.0
530,57.10623065015481,10.0
531,57.44001547987616,10.0
532,57.86087461300309,10.0
533,58.59133126934984,10.0
534,58.262383900928796,10.0
535,56.153250773993804,10.0
536,58.881578947368425,10.0
537,59.9264705882353,10.0
538,60.64725232198142,10.0
539,60.19736842105263,10.0
540,58.64938080495356,10.0
541,60.26025541795666,10.0
542,59.060565015479874,10.0
543,56.835332817337466,10.0
544,62.22426470588234,10.0
545,57.04334365325077,10.0
546,51.19969040247678,10.0
547,58.28657120743034,10.0
548,56.36126160990711,10.0
549,59.69427244582043,10.0
550,62.17589009287925,10.0
551,61.363196594427244,10.0
552,62.12751547987615,10.0
553,57.14976780185758,10.0
554,60.2312306501548,10.0
555,57.39647832817337,10.0
556,55.12770897832818,10.0
557,64.03831269349845,10.0
558,59.1234520123839,10.0
559,59.6749226006192,10.0
560,61.392221362229094,10.0
561,57.56578947368421,10.0
562,62.24845201238389,10.0
563,64.27534829721363,10.0
564,60.956849845201226,10.0
565,59.336300309597526,10.0
566,54.92453560371517,10.0
567,59.67492260061919,10.0
568,60.637577399380795,10.0
569,58.28173374613003,10.0
570,62.11300309597523,10.0
571,62.35487616099073,10.0
572,57.63835139318885,10.0
573,60.61822755417957,10.0
574,62.45646284829722,10.0
575,62.200077399380795,10.0
576,56.927244582043336,10.0
577,59.22020123839009,10.0
578,55.51470588235295,10.0
579,61.09713622291022,10.0
580,60.187693498452006,10.0
581,59.03637770897833,10.0
582,62.949883900928796,10.0
583,59.84423374613003,10.0
584,62.02109133126935,10.0
585,57.11106811145511,10.0
586,57.367453560371516,10.0
587,59.25406346749226,10.0
588,65.3734520123839,10.0
589,59.452399380804955,10.0
590,55.287345201238395,10.0
591,61.70665634674921,10.0
592,56.84017027863777,10.0
593,55.3405572755418,10.0
594,59.15731424148606,10.0
595,62.398413312693506,10.0
596,59.82488390092879,10.0
597,60.87461300309598,10.0
598,58.06404798761611,10.0
599,55.8968653250774,10.0
600,55.67917956656347,10.0
601,55.432469040247675,10.0
602,55.79044117647059,10.0
603,59.42337461300309,10.0
604,56.81114551083592,10.0
605,57.45452786377709,10.0
606,57.73510061919505,10.0
607,58.94446594427245,10.0
608,57.652863777089784,10.0
609,57.483552631578945,10.0
610,60.57952786377708,10.0
611,57.488390092879264,10.0
612,59.718459752321984,10.0
613,62.78057275541795,10.0
614,57.07720588235294,10.0
615,60.51664086687306,10.0
616,58.70259287925696,10.0
617,60.608552631578945,10.0
618,61.84210526315789,10.0
619,61.77438080495355,10.0
620,55.55824303405573,10.0
621,53.44910990712074,10.0
622,60.77786377708978,10.0
623,57.41099071207431,10.0
624,57.90924922600619,10.0
625,58.7171052631579,10.0
626,58.58649380804953,10.0
627,61.2906346749226,10.0
628,52.63641640866873,10.0
629,60.26025541795666,10.0
630,63.93188854489164,10.0
631,55.98393962848298,10.0
632,55.064821981424146,10.0
633,60.284442724458195,10.0
634,56.487035603715164,10.0
635,61.813080495356026,10.0
636,62.21942724458205,10.0
637,55.23897058823529,10.0
638,63.196594427244584,10.0
639,59.147639318885446,10.0
640,54.00058049535604,10.0
641,61.0826238390093,10.0
642,59.35565015479875,10.0
643,57.00948142414861,10.0
644,59.04121517027864,10.0
645,63.3030185758514,10.0
646,60.8310758513932,10.0
647,60.64725232198142,10.0
648,58.65905572755418,10.0
649,55.61145510835913,10.0
650,55.684017027863774,10.0
651,56.9078947368421,10.0
652,61.687306501547994,10.0
653,54.91969814241486,10.0
654,64.6188080495356,10.0
655,58.41718266253869,10.0
656,60.434404024767794,10.0
657,56.43866099071208,10.0
658,67.34229876160991,10.0
659,59.44272445820433,10.0
660,56.525735294117645,10.0
661,51.973684210526315,10.0
662,58.42202012383901,10.0
663,59.59268575851393,10.0
664,58.9783281733746,10.0
665,60.274767801857585,10.0
666,57.83668730650154,10.0
667,61.537345201238395,10.0
668,62.61609907120744,10.0
669,53.27979876160992,10.0
670,58.020510835913306,10.0
671,56.45801083591331,10.0
672,56.86919504643963,10.0
673,55.05998452012384,10.0
674,59.868421052631575,10.0
675,61.74535603715169,10.0
676,55.093846749226,10.0
677,62.108165634674926,10.0
678,54.934210526315795,10.0
679,58.8186919504644,10.0
680,59.49109907120743,10.0
681,57.13525541795666,10.0
682,56.34191176470589,10.0
683,61.99206656346749,10.0
684,60.79237616099071,10.0
685,55.737229102167184,10.0
686,60.56501547987615,10.0
687,52.87828947368421,10.0
688,62.89667182662539,10.0
689,60.269930340557266,10.0
690,60.676277089783284,10.0
691,57.130417956656345,10.0
692,60.42956656346749,10.0
693,60.74883900928793,10.0
694,54.80843653250774,10.0
695,56.1000386996904,10.0
696,64.39144736842107,10.0
697,57.58513931888545,10.0
698,58.66389318885448,10.0
699,57.24167956656347,10.0
700,58.8719040247678,10.0
701,62.62093653250775,10.0
702,61.98239164086687,10.0
703,56.994969040247675,10.0
704,59.84423374613002,10.0
705,58.489744582043336,10.0
706,56.77244582043344,10.0
707,60.09094427244582,10.0
708,61.039086687306494,10.0
709,60.01838235294117,10.0
710,64.45433436532507,10.0
711,60.38602941176472,10.0
712,54.95356037151703,10.0
713,60.594040247678016,10.0
714,59.312113003095966,10.0
715,57.338428792569665,10.0
716,58.7171052631579,10.0
717,58.422020123839005,10.0
718,55.77592879256966,10.0
719,61.005224458204324,10.0
720,58.1172600619195,10.0
721,59.63138544891641,10.0
722,60.82140092879256,10.0
723,55.64047987616099,10.0
724,58.51393188854489,10.0
725,55.55340557275542,10.0
726,57.420665634674926,10.0
727,58.05437306501548,10.0
728,54.431114551083596,10.0
729,59.04121517027863,10.0
730,60.00870743034056,10.0
731,56.06133900928792,10.0
732,59.68943498452012,10.0
733,56.19195046439628,10.0
734,58.654218266253864,10.0
735,55.76625386996905,10.0
736,55.77109133126935,10.0
737,57.788312693498455,10.0
738,56.71923374613003,10.0
739,59.35565015479876,10.0
740,56.0516640866873,10.0
741,57.09171826625387,10.0
742,56.72407120743034,10.0
743,59.452399380804955,10.0
744,60.105456656346746,10.0
745,57.183630030959755,10.0
746,57.02883126934985,10.0
747,56.00328947368422,10.0
748,59.650735294117645,10.0
749,56.70955882352941,10.0
750,62.146865325077385,10.0
751,60.8891253869969,10.0
752,55.534055727554176,10.0
753,53.7828947368421,10.0
754,57.93343653250775,10.0
755,61.145510835913306,10.0
756,55.96458978328173,10.0
757,56.646671826625386,10.0
758,59.23955108359133,10.0
759,59.70394736842106,10.0
760,56.09036377708978,10.0
761,54.95356037151702,10.0
762,57.65770123839008,10.0
763,60.26509287925696,10.0
764,58.978328173374614,10.0
765,63.28850619195047,10.0
766,56.786958204334354,10.0
767,57.556114551083596,10.0
768,65.69756191950464,10.0
769,54.629450464396285,10.0
770,57.77380030959754,10.0
771,54.943885448916404,10.0
772,55.224458204334354,10.0
773,60.057082043343655,10.0
774,56.695046439628484,10.0
775,60.845588235294116,10.0
776,59.147639318885446,10.0
777,61.808243034055735,10.0
778,60.168343653250766,10.0
779,55.99845201238389,10.0
780,57.14976780185758,10.0
781,57.86571207430342,10.0
782,59.43304953560372,10.0
783,60.70046439628483,10.0
784,60.50696594427245,10.0
785,61.6921439628483,10.0
786,60.845588235294116,10.0
787,59.02670278637771,10.0
788,56.49671052631579,10.0
789,58.05437306501548,10.0
790,62.43227554179566,10.0
791,56.79179566563467,10.0
792,58.99767801857586,10.0
793,61.619582043343655,10.0
794,57.58030185758514,10.0
795,62.1468653250774,10.0
796,57.546439628482965,10.0
797,56.58378482972137,10.0
798,59.689434984520126,10.0
799,59.86842105263158,10.0
800,59.02670278637771,10.0
801,59.54431114551083,10.0
802,52.76702786377709,10.0
803,56.811145510835914,10.0
804,55.86300309597522,10.0
805,56.893382352941174,10.0
806,62.54837461300309,10.0
807,54.57140092879257,10.0
808,54.85197368421053,10.0
809,58.92511609907121,10.0
810,63.883513931888544,10.0
811,61.20356037151702,10.0
812,57.07236842105264,10.0
813,59.83455882352942,10.0
814,59.9264705882353,10.0
815,57.54160216718267,10.0
816,61.22291021671826,10.0
817,59.4233746130031,10.0
818,59.771671826625386,10.0
819,54.523026315789465,10.0
820,60.66660216718266,10.0
821,56.075851393188856,10.0
822,55.06482198142415,10.0
823,58.35913312693498,10.0
824,59.29760061919505,10.0
825,55.10835913312694,10.0
826,61.58571981424147,10.0
827,59.142801857585134,10.0
828,56.47736068111456,10.0
829,58.15112229102167,10.0
830,59.970007739938076,10.0
831,55.9500773993808,10.0
832,59.99419504643963,10.0
833,54.86164860681114,10.0
834,54.60526315789474,10.0
835,57.90924922600619,10.0
836,60.85526315789473,10.0
837,60.92298761609908,10.0
838,59.10410216718266,10.0
839,59.44272445820433,10.0
840,55.35506965944272,10.0
841,60.25541795665634,10.0
842,59.882933436532504,10.0
843,57.73026315789474,10.0
844,59.312113003095966,10.0
845,60.23606811145511,10.0
846,56.29353715170278,10.0
847,60.129643962848306,10.0
848,56.08552631578947,10.0
849,61.232585139318886,10.0
850,61.145510835913306,10.0
851,64.0673374613003,10.0
852,62.03560371517028,10.0
853,52.1671826625387,10.0
854,59.645897832817326,10.0
855,61.40189628482973,10.0
856,64.78811919504643,10.0
857,55.63564241486068,10.0
858,58.122097523219814,10.0
859,58.23335913312694,10.0
860,61.50832043343653,10.0
861,54.82294891640867,10.0
862,61.01973684210526,10.0
863,65.23316563467493,10.0
864,61.82275541795666,10.0
865,61.55669504643962,10.0
866,54.75038699690403,10.0
867,55.11803405572755,10.0
868,58.102747678018574,10.0
869,56.19195046439628,10.0
870,56.01780185758514,10.0
871,61.73568111455109,10.0
872,58.005998452012385,10.0
873,57.49322755417956,10.0
874,55.10352167182663,10.0
875,60.47310371517027,10.0
876,58.67840557275542,10.0
877,59.34113777089783,10.0
878,57.03366873065016,10.0
879,55.00677244582043,10.0
880,60.594040247678016,10.0
881,63.23045665634675,10.0
882,61.76954334365326,10.0
883,57.37229102167183,10.0
884,58.18498452012383,10.0
885,63.457817337461314,10.0
886,59.27341331269349,10.0
887,62.06462848297213,10.0
888,59.35565015479876,10.0
889,58.82352941176471,10.0
890,63.03212074303407,10.0
891,56.24999999999999,10.0
892,61.513157894736835,10.0
893,59.96517027863778,10.0
894,59.18150154798762,10.0
895,61.06327399380805,10.0
896,57.633513931888544,10.0
897,64.19794891640866,10.0
898,58.33494582043344,10.0
899,59.210526315789465,10.0
900,63.09984520123838,10.0
901,63.03695820433436,10.0
902,51.359326625387,10.0
903,53.48780959752323,10.0
904,62.601586687306494,10.0
905,56.51122291021672,10.0
906,59.75715944272446,10.0
907,55.12287151702786,10.0
908,57.5125773993808,10.0
909,57.72058823529412,10.0
910,59.312113003095966,10.0
911,62.26296439628483,10.0
912,58.93962848297213,10.0
913,57.87538699690403,10.0
914,56.071013931888544,10.0
915,60.255417956656345,10.0
916,60.8891253869969,10.0
917,63.23045665634677,10.0
918,61.68246904024768,10.0
919,58.61068111455108,10.0
920,62.766060371517035,10.0
921,63.98026315789474,10.0
922,56.55959752321981,10.0
923,56.25000000000001,10.0
924,56.11938854489164,10.0
925,62.57256191950464,10.0
926,56.68537151702785,10.0
927,53.89899380804954,10.0
928,61.18904798761611,10.0
929,58.63970588235294,10.0
930,57.74961300309598,10.0
931,57.44969040247678,10.0
932,58.49941950464397,10.0
933,57.725425696594414,10.0
934,63.390092879256976,10.0
935,60.45859133126935,10.0
936,60.80688854489164,10.0
937,58.06888544891641,10.0
938,59.14280185758515,10.0
939,63.82546439628483,10.0
940,55.86784055727554,10.0
941,54.44078947368421,10.0
942,60.913312693498455,10.0
943,59.11377708978328,10.0
944,58.46555727554179,10.0
945,60.64725232198142,10.0
946,59.52979876160992,10.0
947,59.43788699690403,10.0
948,56.5015479876161,10.0
949,62.31133900928793,10.0
950,61.66795665634675,10.0
951,58.83320433436533,10.0
952,59.660410216718276,10.0
953,58.55263157894736,10.0
954,58.60100619195046,10.0
955,60.43924148606811,10.0
956,51.34481424148606,10.0
957,59.573335913312704,10.0
958,64.0189628482972,10.0
959,57.35294117647059,10.0
960,57.14493034055727,10.0
961,59.408862229102176,10.0
962,55.23413312693498,10.0
963,59.95065789473685,10.0
964,59.302438080495364,10.0
965,57.72058823529412,10.0
966,59.0218653250774,10.0
967,64.1592492260062,10.0
968,57.589976780185765,10.0
969,57.13525541795666,10.0
970,57.904411764705884,10.0
971,60.62306501547988,10.0
972,57.06269349845201,10.0
973,57.57062693498453,10.0
974,58.12209752321981,10.0
975,56.428986068111456,10.0
976,55.65982972136223,10.0
977,56.0516640866873,10.0
978,55.64047987616099,10.0
979,59.62171052631579,10.0
980,60.15866873065016,10.0
981,58.79450464396285,10.0
982,59.079914860681114,10.0
983,56.74342105263158,10.0
984,61.40673374613004,10.0
985,60.41505417956655,10.0
986,61.832430340557266,10.0
987,57.7641253869969,10.0
988,59.979682662538686,10.0
989,61.46478328173374,10.0
990,55.553405572755416,10.0
991,56.94659442724458,10.0
992,57.64802631578947,10.0
993,58.70259287925696,10.0
994,57.61900154798761,10.0
995,60.816563467492266,10.0
996,53.221749226006196,10.0
997,59.52012383900928,10.0
998,54.058630030959755,10.0
999,61.8953173374613,10.0
1000,61.571207430340564,10.0
1001,60.835913312693506,10.0
1002,64.1060371517028,10.0
1003,59.17182662538699,10.0
1004,60.734326625387,10.0
1005,58.44620743034056,10.0
1006,59.36048761609907,10.0
1007,53.89415634674922,10.0
1008,61.81308049535604,10.0
1009,56.08068885448917,10.0
1010,56.38544891640867,10.0
1011,59.766834365325074,10.0
1012,55.85332817337461,10.0
1013,59.31211300309598,10.0
1014,59.25890092879257,10.0
1015,54.532701238390096,10.0
1016,61.33417182662539,10.0
1017,59.549148606811144,10.0
1018,58.91544117647058,10.0
1019,58.57681888544892,10.0
1020,56.81114551083591,10.0
1021,59.31695046439628,10.0
1022,56.767608359133135,10.0
1023,57.841524767801864,10.0
1024,56.52089783281733,10.0
1025,60.279605263157904,10.0
1026,60.14899380804953,10.0
1027,57.37229102167182,10.0
1028,58.58649380804953,10.0
1029,63.20626934984519,10.0
1030,57.16911764705883,10.0
1031,59.66041021671827,10.0
1032,59.54914860681115,10.0
1033,62.809597523219814,10.0
1034,60.284442724458195,10.0
1035,56.37577399380804,10.0
1036,59.539473684210535,10.0
1037,59.73297213622291,10.0
1038,58.86222910216719,10.0
1039,57.183630030959755,10.0
1040,57.01431888544893,10.0
1041,61.45994582043343,10.0
1042,57.609326625387006,10.0
1043,55.54856811145511,10.0
1044,59.08958978328173,10.0
1045,60.26509287925696,10.0
1046,54.80843653250774,10.0
1047,61.08262383900929,10.0
1048,58.286571207430335,10.0
1049,61.47445820433436,10.0
1050,61.57604489164087,10.0
1051,59.83455882352942,10.0
1052,55.248645510835914,10.0
1053,59.046052631578945,10.0
1054,54.91969814241487,10.0
1055,62.577399380804934,10.0
1056,57.256191950464384,10.0
1057,64.73490712074305,10.0
1058,54.70684984520124,10.0
1059,63.66582817337459,10.0
1060,59.665247678018574,10.0
1061,56.64667182662539,10.0
1062,54.71168730650155,10.0
1063,56.79663312693498,10.0
1064,58.78966718266253,10.0
1065,61.03908668730651,10.0
1066,62.291989164086694,10.0
1067,57.11590557275542,10.0
1068,60.09578173374613,10.0
1069,60.74883900928793,10.0
1070,56.341911764705884,10.0
1071,58.55263157894736,10.0
1072,60.87461300309598,10.0
1073,58.60100619195047,10.0
1074,58.978328173374614,10.0
1075,59.08958978328173,10.0
1076,59.19601393188855,10.0
1077,55.408281733746136,10.0
1078,59.64589783281734,10.0
1079,60.207043343653254,10.0
1080,60.52147832817338,10.0
1081,60.71497678018576,10.0
1082,61.116486068111456,10.0
1083,57.164280185758514,10.0
1084,60.5843653250774,10.0
1085,66.49574303405572,10.0
1086,56.59345975232198,10.0
1087,56.49187306501549,10.0
1088,62.27747678018576,10.0
1089,60.80688854489164,10.0
1090,55.954914860681114,10.0
1091,60.07643188854489,10.0
1092,61.45027089783281,10.0
1093,58.60584365325078,10.0
1094,58.24303405572756,10.0
1095,57.89957430340557,10.0
1096,57.86087461300309,10.0
1097,58.83320433436533,10.0
1098,57.95762383900929,10.0
1099,58.180147058823536,10.0
1100,57.40615325077399,10.0
1101,60.48761609907121,10.0
1102,58.33010835913313,10.0
1103,59.35081269349845,10.0
1104,58.41718266253869,10.0
1105,59.055727554179576,10.0
1106,57.261029411764696,10.0
1107,55.55824303405573,10.0
1108,59.031540247678016,10.0
1109,62.69349845201236,10.0
1110,54.93421052631578,10.0
1111,59.970007739938076,10.0
1112,58.828366873065015,10.0
1113,55.57275541795666,10.0
1114,57.64802631578946,10.0
1115,54.45530185758514,10.0
1116,57.57546439628482,10.0
1117,55.88719040247678,10.0
1118,60.947174922600624,10.0
1119,56.8111455108359,10.0
1120,57.62867647058823,10.0
1121,62.37906346749225,10.0
1122,66.20549535603715,10.0
1123,57.68672600619195,10.0
1124,59.05089009287926,10.0
1125,55.0890092879257,10.0
1126,61.17453560371516,10.0
1127,59.974845201238395,10.0
1128,57.551277089783284,10.0
1129,59.079914860681114,10.0
1130,56.545085139318886,10.0
1131,65.82817337461299,10.0
1132,57.80282507739938,10.0
1133,56.898219814241486,10.0
1134,59.70394736842105,10.0
1135,58.3639705882353,10.0
1136,60.037732198142415,10.0
1137,56.74342105263158,10.0
1138,60.88428792569659,10.0
1139,57.81250000000001,10.0
1140,58.23819659442725,10.0
1141,55.534055727554176,10.0
1142,60.7875386996904,10.0
1143,56.73858359133127,10.0
1144,58.52360681114551,10.0
1145,57.565789473684205,10.0
1146,54.890673374612994,10.0
1147,54.40208978328173,10.0
1148,57.93827399380805,10.0
1149,55.96458978328173,10.0
1150,56.48703560371517,10.0
1151,52.86377708978329,10.0
1152,60.627902476780186,10.0
1153,61.2906346749226,10.0
1154,59.40886222910216,10.0
1155,57.12558049535603,10.0
1156,59.147639318885446,10.0
1157,61.56153250773994,10.0
1158,56.022639318885446,10.0
1159,57.004643962848306,10.0
1160,55.46149380804953,10.0
1161,55.38893188854489,10.0
1162,62.38390092879256,10.0
1163,58.60584365325077,10.0
1164,55.432469040247675,10.0
1165,60.63757739938081,10.0
1166,60.83591331269349,10.0
1167,56.811145510835914,10.0
1168,58.296246130030966,10.0
1169,57.66253869969041,10.0
1170,56.95143188854489,10.0
1171,54.044117647058826,10.0
1172,58.5719814241486,10.0
1173,60.545665634674926,10.0
1174,62.33068885448917,10.0
1175,52.13332043343653,10.0
1176,58.155959752321984,10.0
1177,58.68808049535603,10.0
1178,61.885642414860676,10.0
1179,53.468459752321984,10.0
1180,61.26644736842104,10.0
1181,63.07082043343653,10.0
1182,61.242260061919495,10.0
1183,58.867066563467496,10.0
1184,59.16698916408669,10.0
1185,60.90363777089783,10.0
1186,60.119969040247675,10.0
1187,55.800116099071204,10.0
1188,59.9264705882353,10.0
1189,55.65499226006192,10.0
1190,61.66311919504645,10.0
1191,57.86571207430342,10.0
1192,59.09926470588235,10.0
1193,61.522832817337466,10.0
1194,55.118034055727556,10.0
1195,59.16215170278638,10.0
1196,60.13448142414861,10.0
1197,59.03154024767802,10.0
1198,64.10119969040248,10.0
1199,59.74748452012385,10.0
1200,59.53947368421053,10.0
1201,59.53463622291021,10.0
1202,60.879450464396285,10.0
1203,59.931308049535616,10.0
1204,54.76006191950465,10.0
1205,56.18711300309598,10.0
1206,57.144930340557266,10.0
1207,58.475232198142415,10.0
1208,62.44195046439627,10.0
1209,58.40750773993808,10.0
1210,57.56095201238389,10.0
1211,53.21691176470589,10.0
1212,61.30514705882353,10.0
1213,60.71013931888545,10.0
1214,61.527670278637785,10.0
1215,58.04953560371517,10.0
1216,61.01973684210526,10.0
1217,60.565015479876166,10.0
1218,60.63273993808049,10.0
1219,58.891253869969034,10.0
1220,59.481424148606806,10.0
1221,59.13796439628483,10.0
1222,58.28657120743034,10.0
1223,53.42008513931888,10.0
1224,57.99632352941177,10.0
1225,56.985294117647065,10.0
1226,62.500000000000014,10.0
1227,60.41989164086687,10.0
1228,62.75154798761609,10.0
1229,58.82352941176471,10.0
1230,53.84578173374613,10.0
1231,63.22078173374613,10.0
1232,61.929179566563455,10.0
1233,62.53386222910217,10.0
1234,58.431695046439636,10.0
1235,55.42763157894736,10.0
1236,58.557469040247675,10.0
1237,60.86493808049536,10.0
1238,65.31540247678019,10.0
1239,56.93208204334365,10.0
1240,58.122097523219814,10.0
1241,60.82623839009288,10.0
1242,52.85893962848297,10.0
1243,58.509094427244584,10.0
1244,59.61687306501548,10.0
1245,58.89609133126935,10.0
1246,63.544891640866865,10.0
1247,59.19117647058823,10.0
1248,63.9657507739938,10.0
1249,61.01489938080495,10.0
1250,57.851199690402474,10.0
1251,56.545085139318886,10.0
1252,58.15112229102168,10.0
1253,63.907701238390096,10.0
1254,60.07643188854488,10.0
1255,60.79721362229102,10.0
1256,59.56366099071207,10.0
1257,56.90789473684211,10.0
1258,60.405379256965944,10.0
1259,60.608552631578945,10.0
1260,61.51799535603715,10.0
1261,59.868421052631575,10.0
1262,63.496517027863774,10.0
1263,56.782120743034056,10.0
1264,61.029411764705884,10.0
1265,57.856037151702786,10.0
1266,56.946594427244584,10.0
1267,58.296246130030966,10.0
1268,61.13099845201239,10.0
1269,61.44059597523219,10.0
1270,57.26586687306502,10.0
1271,62.277476780185744,10.0
1272,59.40886222910216,10.0
1273,64.28502321981425,10.0
1274,59.10410216718266,10.0
1275,57.536764705882355,10.0
1276,58.76064241486068,10.0
1277,56.796633126934985,10.0
1278,59.31211300309598,10.0
1279,58.141447368421055,10.0
1280,60.47310371517027,10.0
1281,57.63351393188856,10.0
1282,57.89957430340557,10.0
1283,59.35565015479876,10.0
1284,55.79044117647059,10.0
1285,58.33010835913313,10.0
1286,58.19949690402476,10.0
1287,60.68111455108359,10.0
1288,56.30321207430341,10.0
1289,58.75096749226005,10.0
1290,54.7890866873065,10.0
1291,60.734326625387,10.0
1292,63.336880804953566,10.0
1293,60.119969040247675,10.0
1294,57.07720588235294,10.0
1295,62.24845201238389,10.0
1296,59.44272445820433,10.0
1297,61.5421826625387,10.0
1298,56.59345975232198,10.0
1299,61.76954334365326,10.0
1300,59.17666408668731,10.0
1301,61.35835913312694,10.0
1302,64.51238390092878,10.0
1303,63.530379256965944,10.0
1304,53.01373839009288,10.0
1305,59.02186532507741,10.0
1306,59.57333591331269,10.0
1307,57.449690402476776,10.0
1308,55.13254643962847,10.0
1309,54.49883900928792,10.0
1310,57.90924922600619,10.0
1311,51.45607585139319,10.0
1312,57.004643962848306,10.0
1313,55.65015479876161,10.0
1314,58.19949690402477,10.0
1315,59.85390866873065,10.0
1316,58.52360681114551,10.0
1317,61.19388544891641,10.0
1318,56.99013157894736,10.0
1319,55.03579721362229,10.0
1320,58.34945820433437,10.0
1321,62.91118421052632,10.0
1322,60.018382352941174,10.0
1323,58.90576625386996,10.0
1324,60.04740712074304,10.0
1325,57.29489164086687,10.0
1326,55.3937693498452,10.0
1327,62.32101393188856,10.0
1328,56.59829721362229,10.0
1329,61.585719814241486,10.0
1330,58.48490712074303,10.0
1331,57.246517027863774,10.0
1332,58.7219427244582,10.0
1333,56.72890866873065,10.0
1334,60.269930340557266,10.0
1335,55.92589009287926,10.0
1336,58.29624613003096,10.0
1337,58.73645510835913,10.0
1338,55.80495356037153,10.0
1339,63.59810371517027,10.0
1340,63.07082043343653,10.0
1341,56.593459752321984,10.0
1342,61.556695046439636,10.0
1343,58.291408668730654,10.0
1344,55.98877708978329,10.0
1345,60.77786377708978,10.0
1346,59.53947368421053,10.0
1347,57.754450464396285,10.0
1348,54.58591331269349,10.0
1349,60.269930340557266,10.0
1350,53.35236068111456,10.0
1351,57.173955108359124,10.0
1352,58.65421826625387,10.0
1353,53.93769349845201,10.0
1354,54.56656346749225,10.0
1355,57.08688080495356,10.0
1356,62.88215944272447,10.0
1357,63.24980650154798,10.0
1358,57.78831269349845,10.0
1359,57.86571207430342,10.0
1360,63.83997678018576,10.0
1361,60.55050309597523,10.0
1362,54.324690402476776,10.0
1363,57.53192724458204,10.0
1364,59.147639318885446,10.0
1365,55.398606811145505,10.0
1366,59.63622291021672,10.0
1367,54.5859133126935,10.0
1368,60.19736842105263,10.0
1369,60.56017801857586,10.0
1370,57.889899380804955,10.0
1371,57.014318885448915,10.0
1372,59.500773993808046,10.0
1373,56.28386222910217,10.0
1374,59.41369969040248,10.0
1375,59.10893962848297,10.0
1376,60.11513157894738,10.0
1377,59.59752321981425,10.0
1378,60.9858746130031,10.0
1379,56.86919504643963,10.0
1380,59.984520123839,10.0
1381,61.784055727554176,10.0
1382,56.540247678018574,10.0
1383,58.678405572755416,10.0
1384,60.51664086687306,10.0
1385,54.890673374612994,10.0
1386,59.30727554179567,10.0
1387,61.6921439628483,10.0
1388,60.961687306501545,10.0
1389,55.41795665634675,10.0
1390,57.98181114551084,10.0
1391,59.80553405572755,10.0
1392,58.794504643962846,10.0
1393,56.95143188854489,10.0
1394,58.94930340557275,10.0
1395,60.80205108359132,10.0
1396,60.45375386996904,10.0
1397,62.964396284829704,10.0
1398,60.608552631578945,10.0
1399,60.734326625386984,10.0
1400,60.81656346749225,10.0
1401,60.211880804953566,10.0
1402,55.205108359133135,10.0
1403,57.46904024767801,10.0
1404,58.015673374613016,10.0
1405,60.92298761609907,10.0
1406,62.84829721362229,10.0
1407,54.75522445820433,10.0
1408,55.466331269349844,10.0
1409,60.424729102167184,10.0
1410,61.31965944272446,10.0
1411,55.83881578947369,10.0
1412,56.071013931888544,10.0
1413,59.61687306501548,10.0
1414,58.122097523219814,10.0
1415,56.31288699690402,10.0
1416,58.88641640866872,10.0
1417,58.5671439628483,10.0
1418,61.953366873065015,10.0
1419,55.62596749226006,10.0
1420,56.69020897832817,10.0
1421,56.42898606811144,10.0
1422,60.947174922600624,10.0
1423,59.61203560371517,10.0
1424,56.6611842105263,10.0
1425,61.14551083591332,10.0
1426,59.40886222910217,10.0
1427,58.19949690402477,10.0
1428,56.56927244582043,10.0
1429,53.15402476780186,10.0
1430,60.71497678018576,10.0
1431,61.68246904024768,10.0
1432,60.01838235294117,10.0
1433,60.47310371517028,10.0
1434,62.99342105263158,10.0
1435,56.26934984520123,10.0
1436,56.1484133126935,10.0
1437,59.568498452012385,10.0
1438,60.92298761609907,10.0
1439,60.46826625386996,10.0
1440,59.39918730650155,10.0
1441,59.331462848297214,10.0
1442,58.857391640866865,10.0
1443,58.8235294117647,10.0
1444,55.23413312693498,10.0
1445,58.20433436532508,10.0
1446,59.220201238390096,10.0
1447,60.608552631578945,10.0
1448,60.23123065015481,10.0
1449,58.601006191950454,10.0
1450,60.274767801857585,10.0
1451,60.057082043343655,10.0
1452,57.09171826625386,10.0
1453,61.52767027863777,10.0
1454,62.40808823529413,10.0
1455,56.78212074303405,10.0
1456,61.092298761609904,10.0
1457,58.43653250773993,10.0
1458,58.40750773993808,10.0
1459,60.99071207430341,10.0
1460,62.08881578947368,10.0
1461,58.557469040247675,10.0
1462,55.935565015479874,10.0
1463,58.968653250774004,10.0
1464,61.837267801857585,10.0
1465,56.2016253869969,10.0
1466,60.879450464396285,10.0
1467,60.04740712074303,10.0
1468,54.29082817337462,10.0
1469,55.42763157894736,10.0
1470,55.92589009287926,10.0
1471,56.13873839009289,10.0
1472,60.274767801857585,10.0
1473,56.825657894736835,10.0
1474,57.522252321981426,10.0
1475,57.89473684210526,10.0
1476,61.16486068111455,10.0
1477,58.330108359133135,10.0
1478,58.760642414860676,10.0
1479,58.57681888544892,10.0
1480,59.89744582043344,10.0
1481,56.63699690402477,10.0
1482,58.90576625386997,10.0
1483,56.36609907120743,10.0
1484,60.3328173374613,10.0
1485,59.19117647058824,10.0
1486,61.784055727554176,10.0
1487,59.81037151702787,10.0
1488,61.84210526315789,10.0
1489,55.46633126934984,10.0
1490,59.4233746130031,10.0
1491,57.028831269349844,10.0
1492,53.00406346749226,10.0
1493,55.76141640866873,10.0
1494,60.061919504643974,10.0
1495,62.558049535603715,10.0
1496,59.45723684210526,10.0
1497,54.54237616099072,10.0
1498,52.78637770897833,10.0
1499,59.89744582043344,10.0
1500,60.88428792569658,10.0
1501,56.279024767801864,10.0
1502,54.842298761609904,10.0
1503,62.0984907120743,10.0
1504,55.80979102167183,10.0
1505,54.57140092879257,10.0
1506,59.72329721362229,10.0
1507,58.2140092879257,10.0
1508,58.43653250773994,10.0
1509,60.173181114551085,10.0
1510,60.99071207430341,10.0
1511,55.804953560371516,10.0
1512,56.94175696594428,10.0
1513,60.71013931888544,10.0
1514,59.95549535603715,10.0
1515,53.9328560371517,10.0
1516,60.265092879256976,10.0
1517,59.84423374613004,10.0
1518,58.44620743034056,10.0
1519,61.65828173374613,10.0
1520,64.4204721362229,10.0
1521,61.00522445820434,10.0
1522,55.90654024767802,10.0
1523,57.67705108359133,10.0
1524,58.77999226006192,10.0
1525,60.424729102167184,10.0
1526,60.032894736842096,10.0
1527,61.44543343653251,10.0
1528,54.00058049535604,10.0
1529,61.49380804953559,10.0
1530,61.29547213622292,10.0
1531,59.24922600619194,10.0
1532,57.20297987616099,10.0
1533,57.8125,10.0
1534,58.339783281733745,10.0
1535,57.96729876160992,10.0
1536,58.630030959752325,10.0
1537,62.68382352941177,10.0
1538,57.836687306501545,10.0
1539,55.959752321981426,10.0
1540,61.469620743034056,10.0
1541,54.30534055727554,10.0
1542,56.25967492260062,10.0
1543,54.87616099071207,10.0
1544,58.18498452012384,10.0
1545,55.098684210526315,10.0
1546,58.968653250774004,10.0
1547,58.70743034055727,10.0
1548,56.10487616099073,10.0
1549,60.390866873065015,10.0
1550,54.982585139318886,10.0
1551,57.23200464396285,10.0
1552,53.033088235294116,10.0
1553,61.49864551083591,10.0
1554,61.566369969040245,10.0
1555,58.29140866873064,10.0
1556,53.69582043343653,10.0
1557,59.43788699690403,10.0
1558,57.420665634674926,10.0
1559,58.112422600619205,10.0
1560,60.41021671826626,10.0
1561,59.82004643962848,10.0
1562,59.166989164086694,10.0
1563,56.27902476780186,10.0
1564,63.215944272445824,10.0
1565,56.6466718266254,10.0
1566,59.18633900928792,10.0
1567,60.70046439628483,10.0
1568,63.065982972136226,10.0
1569,57.88506191950464,10.0
1570,56.54508513931888,10.0
1571,57.082043343653254,10.0
1572,59.43304953560372,10.0
1573,58.27689628482973,10.0
1574,55.57759287925697,10.0
1575,58.46071981424149,10.0
1576,56.44833591331269,10.0
1577,62.224264705882355,10.0
1578,57.31907894736842,10.0
1579,57.836687306501545,10.0
1580,64.81714396284828,10.0
1581,59.68459752321981,10.0
1582,58.929953560371516,10.0
1583,61.57604489164087,10.0
1584,58.22852167182663,10.0
1585,55.83881578947368,10.0
1586,57.23200464396285,10.0
1587,52.931501547987615,10.0
1588,58.14628482972136,10.0
1589,59.815208978328165,10.0
1590,58.610681114551085,10.0
1591,54.716524767801864,10.0
1592,62.591911764705884,10.0
1593,56.21130030959753,10.0
1594,49.76780185758514,10.0
1595,56.8014705882353,10.0
1596,59.984520123839005,10.0
1597,60.26509287925696,10.0
1598,60.1344814241486,10.0
1599,58.05921052631579,10.0
1600,58.63970588235295,10.0
1601,55.190595975232185,10.0
1602,57.5077399380805,10.0
1603,58.08339783281733,10.0
1604,61.5421826625387,10.0
1605,63.075657894736835,10.0
1606,56.04682662538699,10.0
1607,62.093653250774,10.0
1608,57.217492260061924,10.0
1609,59.737809597523224,10.0
1610,60.80688854489164,10.0
1611,56.79663312693498,10.0
1612,61.987229102167184,10.0
1613,60.23606811145511,10.0
1614,61.41640866873065,10.0
1615,56.690208978328165,10.0
1616,52.409055727554176,10.0
1617,54.20859133126935,10.0
1618,63.31753095975232,10.0
1619,61.595394736842096,10.0
1620,60.93266253869968,10.0
1621,62.12267801857586,10.0
1622,60.095781733746136,10.0
1623,63.24496904024767,10.0
1624,59.27825077399381,10.0
1625,57.11106811145511,10.0
1626,60.27960526315789,10.0
1627,60.018382352941174,10.0
1628,58.862229102167184,10.0
1629,54.3875773993808,10.0
1630,58.61551857585139,10.0
1631,59.93614551083591,10.0
1632,57.96729876160991,10.0
1633,58.87674148606812,10.0
1634,60.086106811145505,10.0
1635,63.09984520123838,10.0
1636,53.47813467492261,10.0
1637,58.286571207430335,10.0
1638,58.0108359133127,10.0
1639,52.4671052631579,10.0
1640,59.12828947368422,10.0
1641,54.81327399380805,10.0
1642,59.64589783281734,10.0
1643,60.15866873065016,10.0
1644,58.509094427244584,10.0
1645,64.40112229102168,10.0
1646,55.18575851393189,10.0
1647,58.47523219814241,10.0
1648,61.45510835913313,10.0
1649,60.298955108359145,10.0
1650,53.840944272445824,10.0
1651,56.08552631578947,10.0
1652,62.46613777089783,10.0
1653,57.68672600619194,10.0
1654,55.403444272445824,10.0
1655,58.247871517027875,10.0
1656,63.63680340557274,10.0
1657,57.05785603715171,10.0
1658,53.20723684210526,10.0
1659,57.89473684210527,10.0
1660,60.71497678018577,10.0
1661,60.56017801857586,10.0
1662,60.076431888544896,10.0
1663,57.07236842105263,10.0
1664,59.55398606811144,10.0
1665,57.62867647058823,10.0
1666,55.80495356037152,10.0
1667,58.160797213622295,10.0
1668,55.80979102167183,10.0
1669,60.02321981424149,10.0
1670,59.49109907120742,10.0
1671,57.73993808049535,10.0
1672,57.062693498452006,10.0
1673,60.405379256965944,10.0
1674,62.04044117647059,10.0
1675,62.52902476780185,10.0
1676,58.25754643962848,10.0
1677,59.81520897832817,10.0
1678,54.77457430340557,10.0
1679,60.88912538699691,10.0
1680,56.63699690402477,10.0
1681,59.210526315789465,10.0
1682,59.18150154798762,10.0
1683,63.419117647058826,10.0
1684,60.361842105263165,10.0
1685,53.59423374613003,10.0
1686,55.93556501547988,10.0
1687,54.43595201238389,10.0
1688,59.747484520123834,10.0
1689,60.09578173374614,10.0
1690,60.43924148606811,10.0
1691,60.71013931888544,10.0
1692,61.12616099071207,10.0
1693,62.32585139318886,10.0
1694,57.23200464396285,10.0
1695,60.26993034055728,10.0
1696,61.83243034055728,10.0
1697,55.983939628482986,10.0
1698,61.65828173374613,10.0
1699,56.38544891640867,10.0
1700,56.95143188854488,10.0
1701,63.37558049535604,10.0
1702,59.10410216718266,10.0
1703,62.296826625386984,10.0
1704,59.650735294117645,10.0
1705,60.07159442724459,10.0
1706,60.361842105263165,10.0
1707,62.437113003095995,10.0
1708,65.12674148606813,10.0
1709,55.53889318885449,10.0
1710,63.54005417956655,10.0
1711,58.639705882352935,10.0
1712,56.994969040247675,10.0
1713,59.83455882352941,10.0
1714,59.51528637770897,10.0
1715,59.0750773993808,10.0
1716,63.7529024767802,10.0
1717,59.22987616099071,10.0
1718,58.01083591331269,10.0
1719,60.75851393188853,10.0
1720,58.044698142414866,10.0
1721,54.561726006191954,10.0
1722,56.772445820433454,10.0
1723,62.25328947368422,10.0
1724,55.572755417956664,10.0
1725,60.913312693498455,10.0
1726,58.77515479876161,10.0
1727,60.666602167182674,10.0
1728,58.69291795665635,10.0
1729,57.42550309597524,10.0
1730,55.640479876160995,10.0
1731,61.179373065015476,10.0
1732,56.27418730650155,10.0
1733,56.308049535603715,10.0
1734,59.85390866873065,10.0
1735,58.944465944272444,10.0
1736,64.62364551083591,10.0
1737,59.08475232198142,10.0
1738,61.35352167182663,10.0
1739,60.16350619195046,10.0
1740,63.6029411764706,10.0
1741,60.10061919504645,10.0
1742,58.726780185758514,10.0
1743,58.422020123839,10.0
1744,57.609326625387006,10.0
1745,59.075077399380795,10.0
1746,56.59345975232198,10.0
1747,58.07372291021673,10.0
1748,60.06675696594428,10.0
1749,57.773800309597526,10.0
1750,60.942337461300305,10.0
1751,60.81172600619195,10.0
1752,58.0205108359133,10.0
1753,57.12558049535605,10.0
1754,56.20162538699691,10.0
1755,57.48839009287926,10.0
1756,64.43498452012383,10.0
1757,61.61958204334366,10.0
1758,59.43304953560371,10.0
1759,57.85119969040248,10.0
1760,57.01431888544892,10.0
1761,56.961106811145505,10.0
1762,59.49109907120743,10.0
1763,55.374419504643974,10.0
1764,56.19678792569659,10.0
1765,55.8484907120743,10.0
1766,57.65770123839008,10.0
1767,62.258126934984524,10.0
1768,55.974264705882355,10.0
1769,63.012770897832816,10.0
1770,54.80359907120743,10.0
1771,60.82140092879256,10.0
1772,58.07856037151703,10.0
1773,56.380611455108365,10.0
1774,56.94175696594427,10.0
1775,58.402670278637764,10.0
1776,54.11667956656346,10.0
1777,59.9796826625387,10.0
1778,59.54431114551083,10.0
1779,53.47813467492261,10.0
1780,61.32449690402477,10.0
1781,59.14280185758514,10.0
1782,58.818691950464384,10.0
1783,57.79315015479875,10.0
1784,62.31133900928791,10.0
1785,56.14841331269349,10.0
1786,57.02399380804953,10.0
1787,58.344620743034056,10.0
1788,56.903057275541805,10.0
1789,59.80069659442725,10.0
1790,53.091137770897824,10.0
1791,58.576818885448915,10.0
1792,55.46633126934984,10.0
1793,52.046246130030966,10.0
1794,60.274767801857585,10.0
1795,60.67143962848298,10.0
1796,52.43324303405572,10.0
1797,54.22310371517027,10.0
1798,55.30669504643962,10.0
1799,61.851780185758514,10.0
1800,55.60178018575852,10.0
1801,59.11377708978328,10.0
1802,55.26799535603715,10.0
1803,53.75870743034056,10.0
1804,57.144930340557266,10.0
1805,57.720588235294116,10.0
1806,59.15731424148608,10.0
1807,58.847716718266255,10.0
1808,56.017801857585134,10.0
1809,55.93072755417956,10.0
1810,59.15731424148608,10.0
1811,61.42124613003096,10.0
1812,60.531153250774,10.0
1813,56.33223684210527,10.0
1814,58.38332043343653,10.0
1815,58.91060371517028,10.0
1816,59.13796439628484,10.0
1817,62.24845201238389,10.0
1818,58.5719814241486,10.0
1819,56.53057275541796,10.0
1820,60.98587461300309,10.0
1821,60.48277863777089,10.0
1822,57.37712848297214,10.0
1823,57.93827399380805,10.0
1824,55.82914086687307,10.0
1825,61.5421826625387,10.0
1826,57.69640092879257,10.0
1827,59.47174922600619,10.0
1828,61.4889705882353,10.0
1829,59.534636222910216,10.0
1830,57.202979876160995,10.0
1831,56.96110681114551,10.0
1832,61.38254643962848,10.0
1833,58.16079721362229,10.0
1834,60.323142414860676,10.0
1835,63.457817337461286,10.0
1836,54.73587461300309,10.0
1837,59.29760061919505,10.0
1838,57.69640092879256,10.0
1839,60.83591331269349,10.0
1840,58.45104489164087,10.0
1841,60.20220588235295,10.0
1842,61.41157120743034,10.0
1843,64.78328173374612,10.0
1844,59.68459752321981,10.0
1845,61.005224458204324,10.0
1846,53.46362229102167,10.0
1847,62.58223684210527,10.0
1848,61.04876160990712,10.0
1849,59.13796439628483,10.0
1850,55.89202786377708,10.0
1851,56.98045665634675,10.0
1852,60.8407507739938,10.0
1853,58.692917956656345,10.0
1854,55.19059597523219,10.0
1855,62.142027863777095,10.0
1856,58.6155185758514,10.0
1857,62.11300309597523,10.0
1858,58.944465944272444,10.0
1859,60.139318885448915,10.0
1860,59.65073529411765,10.0
1861,57.30940402476781,10.0
1862,60.56985294117647,10.0
1863,59.29276315789474,10.0
1864,59.43788699690402,10.0
1865,57.15460526315789,10.0
1866,62.85797213622292,10.0
1867,61.4938080495356,10.0
1868,57.72542569659443,10.0
1869,59.44756191950464,10.0
1870,57.41099071207431,10.0
1871,56.98529411764705,10.0
1872,64.74458204334366,10.0
1873,55.650154798761605,10.0
1874,60.598877708978335,10.0
1875,58.654218266253864,10.0
1876,55.16157120743034,10.0
1877,57.9140866873065,10.0
1878,63.50135448916409,10.0
1879,58.523606811145505,10.0
1880,61.95820433436532,10.0
1881,61.46962074303407,10.0
1882,57.7641253869969,10.0
1883,61.15518575851394,10.0
1884,56.477360681114554,10.0
1885,61.05843653250775,10.0
1886,59.69427244582044,10.0
1887,59.55882352941177,10.0
1888,52.84442724458204,10.0
1889,56.38061145510836,10.0
1890,59.46691176470588,10.0
1891,59.834558823529406,10.0
1892,59.67976006191951,10.0
1893,58.929953560371516,10.0
1894,62.190402476780186,10.0
1895,61.43092105263158,10.0
1896,61.34868421052632,10.0
1897,63.46265479876162,10.0
1898,55.693691950464405,10.0
1899,59.79102167182663,10.0
1900,59.67008513931888,10.0
1901,58.15112229102167,10.0
1902,58.45588235294118,10.0
1903,52.45743034055728,10.0
1904,55.58243034055728,10.0
1905,57.986648606811144,10.0
1906,56.69020897832817,10.0
1907,56.28869969040247,10.0
1908,58.397832817337466,10.0
1909,56.559597523219814,10.0
1910,61.503482972136226,10.0
1911,59.76199690402478,10.0
1912,56.74825851393189,10.0
1913,54.72136222910217,10.0
1914,56.724071207430335,10.0
1915,55.654992260061924,10.0
1916,57.14493034055727,10.0
1917,61.817917956656345,10.0
1918,66.1280959752322,10.0
1919,53.91834365325078,10.0
1920,56.59829721362229,10.0
1921,55.37925696594427,10.0
1922,51.86242260061919,10.0
1923,57.38196594427245,10.0
1924,61.10681114551083,10.0
1925,57.46904024767802,10.0
1926,59.62171052631578,10.0
1927,60.71013931888544,10.0
1928,57.314241486068106,10.0
1929,59.3266253869969,10.0
1930,54.70201238390093,10.0
1931,61.924342105263165,10.0
1932,62.43227554179566,10.0
1933,55.17124613003096,10.0
1934,57.638351393188856,10.0
1935,57.265866873065015,10.0
1936,61.05359907120743,10.0
1937,59.089589783281724,10.0
1938,61.71633126934984,10.0
1939,58.72678018575851,10.0
1940,59.45239938080494,10.0
1941,56.288699690402474,10.0
1942,60.26509287925696,10.0
1943,62.65963622291021,10.0
1944,58.22852167182663,10.0
1945,57.348103715170275,10.0
1946,59.47174922600618,10.0
1947,56.50638544891641,10.0
1948,55.20510835913313,10.0
1949,60.39570433436532,10.0
1950,59.77167182662539,10.0
1951,61.605069659442734,10.0
1952,64.66718266253872,10.0
1953,57.79798761609907,10.0
1954,57.33842879256965,10.0
1955,59.466911764705884,10.0
1956,55.13254643962848,10.0
1957,58.76547987616099,10.0
1958,53.94736842105263,10.0
1959,58.33494582043344,10.0
1960,57.89473684210527,10.0
1961,59.35081269349845,10.0
1962,59.22987616099072,10.0
1963,58.90576625386996,10.0
1964,59.34597523219815,10.0
1965,58.33010835913313,10.0
1966,59.4233746130031,10.0
1967,58.08823529411764,10.0
1968,57.25135448916409,10.0
1969,57.24651702786378,10.0
1970,53.94736842105264,10.0
1971,56.33223684210526,10.0
1972,59.01702786377708,10.0
1973,60.66660216718266,10.0
1974,57.20781733746131,10.0
1975,60.63273993808049,10.0
1976,61.72600619195047,10.0
1977,61.15518575851394,10.0
1978,61.996904024767794,10.0
1979,61.12616099071209,10.0
1980,58.296246130030966,10.0
1981,61.31482198142415,10.0
1982,59.79102167182663,10.0
1983,57.93343653250775,10.0
1984,58.523606811145505,10.0
1985,56.87403250773993,10.0
1986,59.471749226006196,10.0
1987,61.07778637770898,10.0
1988,64.10603715170278,10.0
1989,55.81462848297214,10.0
1990,55.86300309597522,10.0
1991,60.48761609907121,10.0
1992,55.248645510835914,10.0
1993,59.47174922600619,10.0
1994,61.551857585139324,10.0
1995,59.3217879256966,10.0
1996,61.140673374613,10.0
1997,59.76683436532507,10.0
1998,60.52147832817337,10.0
1999,57.88506191950464,10.0
2000,57.1594427244582,10.0
2001,63.63680340557274,10.0
2002,63.82062693498454,10.0
2003,60.03773219814242,10.0
2004,58.19949690402478,10.0
2005,57.904411764705884,10.0
2006,56.98045665634675,10.0
2007,57.01915634674923,10.0
2008,56.80147058823529,10.0
2009,55.118034055727556,10.0
2010,59.732972136222905,10.0
2011,63.59810371517027,10.0
2012,54.77457430340557,10.0
2013,57.47871517027864,10.0
2014,55.23897058823529,10.0
2015,58.05437306501547,10.0
2016,61.0874613003096,10.0
2017,63.53521671826625,10.0
2018,63.457817337461314,10.0
2019,58.97832817337461,10.0
2020,59.31695046439628,10.0
2021,54.44078947368422,10.0
2022,60.1780185758514,10.0
2023,62.32585139318886,10.0
2024,57.74961300309597,10.0
2025,58.039860681114554,10.0
2026,56.37093653250775,10.0
2027,59.921633126934985,10.0
2028,58.53328173374613,10.0
2029,58.44620743034056,10.0
2030,57.55611455108359,10.0
2031,55.703366873065015,10.0
2032,59.92647058823528,10.0
2033,55.6985294117647,10.0
2034,58.98800309597523,10.0
2035,59.549148606811144,10.0
2036,55.6985294117647,10.0
2037,53.023413312693506,10.0
2038,57.90441176470588,10.0
2039,59.002515479876166,10.0
2040,57.851199690402474,10.0
2041,60.1828560371517,10.0
2042,58.6203560371517,10.0
2043,59.70878482972136,10.0
2044,61.7453560371517,10.0
2045,59.8297213622291,10.0
2046,59.02670278637771,10.0
2047,60.20704334365325,10.0
2048,57.49322755417956,10.0
2049,58.30108359133126,10.0
2050,57.773800309597526,10.0
2051,58.18498452012384,10.0
2052,59.04121517027865,10.0
2053,59.607198142414866,10.0
2054,59.77167182662538,10.0
2055,56.44833591331269,10.0
2056,59.84423374613003,10.0
2057,59.17666408668731,10.0
2058,58.630030959752325,10.0
2059,59.88777089783282,10.0
2060,57.30456656346749,10.0
2061,63.09017027863777,10.0
2062,60.45859133126935,10.0
2063,57.464202786377705,10.0
2064,61.15518575851392,10.0
2065,57.435178018575854,10.0
2066,57.314241486068106,10.0
2067,54.455301857585134,10.0
2068,58.833204334365334,10.0
2069,59.350812693498455,10.0
2070,56.9078947368421,10.0
2071,56.60797213622291,10.0
2072,59.728134674922615,10.0
2073,60.68595201238389,10.0
2074,59.229876160990706,10.0
2075,58.05437306501548,10.0
2076,57.56578947368421,10.0
2077,56.91756965944273,10.0
2078,52.61222910216719,10.0
2079,66.00232198142416,10.0
2080,61.871130030959755,10.0
2081,58.13660990712074,10.0
2082,60.652089783281724,10.0
2083,57.570626934984524,10.0
2084,61.953366873065036,10.0
2085,59.99903250773994,10.0
2086,56.71923374613002,10.0
2087,61.64860681114551,10.0
2088,59.839396284829725,10.0
2089,59.578173374613,10.0
2090,57.028831269349844,10.0
2091,59.399187306501545,10.0
2092,59.955495356037154,10.0
2093,58.85739164086688,10.0
2094,55.49535603715169,10.0
2095,65.81366099071207,10.0
2096,60.71497678018576,10.0
2097,60.49729102167183,10.0
2098,56.86919504643963,10.0
2099,54.890673374613,10.0
2100,57.95278637770898,10.0
2101,60.62306501547988,10.0
2102,57.10623065015479,10.0
2103,61.580882352941174,10.0
2104,59.534636222910216,10.0
2105,57.25619195046439,10.0
2106,48.36493808049535,10.0
2107,59.14763931888545,10.0
2108,55.87267801857584,10.0
2109,63.399767801857585,10.0
2110,60.48277863777089,10.0
2111,55.32120743034057,10.0
2112,56.52089783281733,10.0
2113,55.335719814241486,10.0
2114,59.77167182662538,10.0
2115,59.887770897832816,10.0
2116,58.42202012383901,10.0
2117,58.06404798761609,10.0
2118,57.028831269349844,10.0
2119,57.51257739938081,10.0
2120,55.86784055727554,10.0
2121,57.014318885448915,10.0
2122,60.90363777089783,10.0
2123,61.04392414860681,10.0
2124,58.09791021671827,10.0
2125,59.147639318885446,10.0
2126,59.21052631578948,10.0
2127,56.980456656346746,10.0
2128,61.50348297213621,10.0
2129,58.98316563467492,10.0
2130,59.62654798761611,10.0
2131,56.86919504643963,10.0
2132,62.45646284829722,10.0
2133,59.05089009287926,10.0
2134,59.225038699690394,10.0
2135,60.7391640866873,10.0
2136,62.4516253869969,10.0
2137,57.62867647058823,10.0
2138,53.89899380804953,10.0
2139,54.70201238390092,10.0
2140,55.006772445820445,10.0
2141,60.1344814241486,10.0
2142,60.62306501547988,10.0
2143,61.61474458204336,10.0
2144,57.79798761609907,10.0
2145,61.37770897832817,10.0
2146,53.44427244582044,10.0
2147,59.91195820433436,10.0
2148,58.51393188854489,10.0
2149,56.12422600619194,10.0
2150,56.153250773993804,10.0
2151,57.498065015479874,10.0
2152,56.21613777089783,10.0
2153,54.13602941176471,10.0
2154,59.54914860681115,10.0
2155,58.847716718266255,10.0
2156,54.09732972136222,10.0
2157,60.06675696594427,10.0
2158,57.652863777089784,10.0
2159,59.171826625387,10.0
2160,57.80282507739938,10.0
2161,59.40886222910217,10.0
2162,56.24516253869969,10.0
2163,57.28037925696595,10.0
2164,61.13099845201238,10.0
2165,60.70046439628483,10.0
2166,58.838041795665625,10.0
2167,64.33823529411764,10.0
2168,57.27554179566564,10.0
2169,62.81443498452011,10.0
2170,59.418537151702786,10.0
2171,60.91815015479876,10.0
2172,58.48006965944272,10.0
2173,58.43169504643962,10.0
2174,57.7109133126935,10.0
2175,62.4032507739938,10.0
2176,63.477167182662534,10.0
2177,60.0764318885449,10.0
2178,59.820046439628484,10.0
2179,59.084752321981426,10.0
2180,57.033668730650156,10.0
2181,58.344620743034056,10.0
2182,58.929953560371516,10.0
2183,55.335719814241486,10.0
2184,62.28715170278639,10.0
2185,62.190402476780186,10.0
2186,57.265866873065015,10.0
2187,59.10410216718265,10.0
2188,57.50773993808049,10.0
2189,62.146865325077385,10.0
2190,63.1627321981424,10.0
2191,56.92240712074303,10.0
2192,61.63893188854489,10.0
2193,61.56153250773994,10.0
2194,58.276896284829725,10.0
2195,59.23471362229103,10.0
2196,60.83107585139319,10.0
2197,58.16079721362229,10.0
2198,57.348103715170275,10.0
2199,55.171246130030966,10.0
2200,61.537345201238395,10.0
2201,57.29005417956657,10.0
2202,57.096555727554176,10.0
2203,57.299729102167184,10.0
2204,55.62596749226006,10.0
2205,59.54431114551084,10.0
2206,58.929953560371516,10.0
2207,54.005417956656345,10.0
2208,53.91350619195046,10.0
2209,62.4516253869969,10.0
2210,56.62248452012384,10.0
2211,55.40828173374612,10.0
2212,58.80417956656347,10.0
2213,57.8608746130031,10.0
2214,57.66737616099071,10.0
2215,62.84829721362229,10.0
2216,60.579527863777095,10.0
2217,55.18092105263159,10.0
2218,63.5110294117647,10.0
2219,58.5187693498452,10.0
2220,55.214783281733745,10.0
2221,65.27670278637771,10.0
2222,57.78347523219815,10.0
2223,60.342492260061924,10.0
2224,58.359133126934985,10.0
2225,57.80766253869969,10.0
2226,61.72116873065016,10.0
2227,50.619195046439636,10.0
2228,58.89609133126935,10.0
2229,63.92221362229103,10.0
2230,59.312113003095966,10.0
2231,60.74400154798762,10.0
2232,60.318304953560364,10.0
2233,60.42472910216719,10.0
2234,56.525735294117645,10.0
2235,57.78831269349845,10.0
2236,68.60003869969039,10.0
2237,61.624419504643974,10.0
2238,60.34249226006191,10.0
2239,60.6762770897833,10.0
2240,60.09094427244582,10.0
2241,63.00793343653251,10.0
2242,57.39164086687306,10.0
2243,66.35061919504645,10.0
2244,62.504837461300305,10.0
2245,61.6002321981424,10.0
2246,60.976199690402474,10.0
2247,60.023219814241486,10.0
2248,56.92724458204333,10.0
2249,55.13738390092879,10.0
2250,56.177438080495364,10.0
2251,55.466331269349844,10.0
2252,60.318304953560364,10.0
2253,58.36880804953561,10.0
2254,61.11164860681114,10.0
2255,57.41099071207431,10.0
2256,54.59075077399381,10.0
2257,58.97349071207431,10.0
2258,62.11784055727554,10.0
2259,59.43304953560372,10.0
2260,60.976199690402474,10.0
2261,60.879450464396285,10.0
2262,61.895317337461286,10.0
2263,56.056501547987615,10.0
2264,57.02883126934984,10.0
2265,62.00657894736842,10.0
2266,59.61203560371517,10.0
2267,60.91815015479876,10.0
2268,58.39299535603715,10.0
2269,56.02747678018575,10.0
2270,57.28037925696595,10.0
2271,58.122097523219814,10.0
2272,61.324496904024755,10.0
2273,54.861648606811144,10.0
2274,59.59752321981424,10.0
2275,59.549148606811144,10.0
2276,57.03366873065016,10.0
2277,61.2325851393189,10.0
2278,58.446207430340564,10.0
2279,59.9264705882353,10.0
2280,58.59616873065016,10.0
2281,57.05301857585139,10.0
2282,56.24032507739939,10.0
2283,59.046052631578945,10.0
2284,58.218846749226,10.0
2285,56.496710526315795,10.0
2286,61.36803405572756,10.0
2287,58.015673374612994,10.0
2288,55.25348297213622,10.0
2289,60.81172600619195,10.0
2290,62.29198916408668,10.0
2291,54.86164860681115,10.0
2292,55.035797213622295,10.0
2293,57.86571207430341,10.0
2294,55.621130030959755,10.0
2295,61.64376934984519,10.0
2296,59.95549535603715,10.0
2297,56.50638544891641,10.0
2298,56.3515866873065,10.0
2299,56.37577399380805,10.0
2300,58.330108359133135,10.0
2301,58.53811919504644,10.0
2302,58.983165634674926,10.0
2303,53.96671826625387,10.0
2304,56.45317337461301,10.0
2305,59.9796826625387,10.0
2306,60.07159442724458,10.0
2307,61.59539473684208,10.0
2308,53.6813080495356,10.0
2309,59.55882352941177,10.0
2310,63.37558049535604,10.0
2311,59.57333591331269,10.0
2312,58.08339783281733,10.0
2313,59.48626160990712,10.0
2314,61.56636996904026,10.0
2315,61.82759287925696,10.0
2316,56.109713622291025,10.0
2317,54.227941176470594,10.0
2318,57.03850619195046,10.0
2319,58.99767801857585,10.0
2320,62.78541021671826,10.0
2321,60.671439628482965,10.0
2322,62.17589009287928,10.0
2323,59.529798761609904,10.0
2324,54.86648606811145,10.0
2325,58.910603715170275,10.0
2326,58.63486842105264,10.0
2327,58.26722136222911,10.0
2328,60.057082043343655,10.0
2329,58.90092879256965,10.0
2330,63.428792569659436,10.0
2331,62.65479876160992,10.0
2332,60.80688854489164,10.0
2333,57.48355263157895,10.0
2334,61.45510835913313,10.0
2335,62.03560371517028,10.0
2336,58.64938080495356,10.0
2337,62.229102167182674,10.0
2338,56.03231424148607,10.0
2339,61.45510835913313,10.0
2340,60.39570433436532,10.0
2341,61.547020123839005,10.0
2342,60.26509287925696,10.0
2343,55.775928792569665,10.0
2344,59.85874613003096,10.0
2345,55.829140866873054,10.0
2346,58.3155959752322,10.0
2347,59.30243808049536,10.0
2348,57.033668730650156,10.0
2349,64.5123839009288,10.0
2350,55.57759287925696,10.0
2351,60.39086687306502,10.0
2352,63.89318885448918,10.0
2353,53.81191950464397,10.0
2354,59.43788699690401,10.0
2355,58.43653250773994,10.0
2356,61.169698142414866,10.0
2357,60.192530959752325,10.0
2358,61.624419504643974,10.0
2359,57.57546439628483,10.0
2360,60.39086687306502,10.0
2361,60.705301857585134,10.0
2362,57.00948142414861,10.0
2363,61.77438080495355,10.0
2364,54.0296052631579,10.0
2365,63.452979876160995,10.0
2366,59.81520897832817,10.0
2367,60.371517027863774,10.0
2368,56.240325077399376,10.0
2369,58.85255417956655,10.0
2370,61.276122291021665,10.0
2371,58.117260061919495,10.0
2372,59.65557275541795,10.0
2373,59.30727554179567,10.0
2374,62.13719040247676,10.0
2375,62.683823529411775,10.0
2376,62.92085913312694,10.0
2377,56.84017027863777,10.0
2378,58.04469814241485,10.0
2379,61.363196594427244,10.0
2380,51.451238390092875,10.0
2381,57.11106811145511,10.0
2382,61.41640866873065,10.0
2383,54.64880030959752,10.0
2384,61.092298761609904,10.0
2385,55.76141640866873,10.0
2386,63.67550309597523,10.0
2387,58.475232198142415,10.0
2388,57.81250000000001,10.0
2389,55.621130030959755,10.0
2390,55.422794117647065,10.0
2391,56.08068885448917,10.0
2392,57.44001547987616,10.0
2393,55.161571207430335,10.0
2394,59.42821207430341,10.0
2395,60.71013931888545,10.0
2396,56.54508513931889,10.0
2397,54.827786377708975,10.0
2398,57.2610294117647,10.0
2399,63.767414860681114,10.0
2400,61.387383900928796,10.0
2401,61.49864551083592,10.0
2402,57.430340557275535,10.0
2403,62.05979102167183,10.0
2404,57.00464396284831,10.0
2405,57.97697368421051,10.0
2406,56.10487616099071,10.0
2407,58.16079721362229,10.0
2408,61.595394736842096,10.0
2409,55.43730650154799,10.0
2410,57.401315789473685,10.0
2411,58.09307275541796,10.0
2412,54.46981424148606,10.0
2413,56.47252321981425,10.0
2414,56.60797213622292,10.0
2415,58.3155959752322,10.0
2416,59.09442724458204,10.0
2417,61.51799535603715,10.0
2418,54.54721362229102,10.0
2419,57.68672600619195,10.0
2420,55.335719814241486,10.0
2421,58.15112229102167,10.0
2422,59.902283281733745,10.0
2423,52.62674148606811,10.0
2424,56.86435758513932,10.0
2425,57.73510061919505,10.0
2426,60.04256965944273,10.0
2427,57.19330495356037,10.0
2428,58.95414086687306,10.0
2429,52.81540247678018,10.0
2430,57.62867647058823,10.0
2431,55.20994582043343,10.0
2432,58.3688080495356,10.0
2433,59.78134674922601,10.0
2434,63.49651702786379,10.0
2435,59.84423374613004,10.0
2436,56.245162538699695,10.0
2437,58.175309597523224,10.0
2438,59.53463622291022,10.0
2439,58.538119195046434,10.0
2440,62.214589783281724,10.0
2441,55.398606811145505,10.0
2442,59.9313080495356,10.0
2443,56.60797213622291,10.0
2444,56.656346749225996,10.0
2445,61.808243034055735,10.0
2446,57.096555727554176,10.0
2447,58.88157894736841,10.0
2448,57.575464396284836,10.0
2449,59.05572755417956,10.0
2450,60.00386996904025,10.0
2451,60.42956656346749,10.0
2452,60.85526315789474,10.0
2453,59.86358359133127,10.0
2454,56.57894736842106,10.0
2455,57.63351393188856,10.0
2456,59.27825077399381,10.0
2457,53.90866873065016,10.0
2458,57.85119969040248,10.0
2459,63.20626934984521,10.0
2460,55.94523993808049,10.0
2461,55.32604489164086,10.0
2462,56.056501547987615,10.0
2463,58.557469040247675,10.0
2464,55.8484907120743,10.0
2465,56.19678792569658,10.0
2466,53.98606811145511,10.0
2467,58.33494582043344,10.0
2468,55.82914086687307,10.0
2469,61.11164860681114,10.0
2470,57.27554179566564,10.0
2471,60.78270123839008,10.0
2472,60.82623839009288,10.0
2473,54.2859907120743,10.0
2474,56.525735294117645,10.0
2475,61.484133126934985,10.0
2476,60.666602167182674,10.0
2477,57.2610294117647,10.0
2478,59.42337461300309,10.0
2479,60.976199690402474,10.0
2480,53.15886222910216,10.0
2481,57.701238390092875,10.0
2482,60.04256965944273,10.0
2483,59.878095975232185,10.0
2484,58.64938080495355,10.0
2485,60.45859133126935,10.0
2486,56.84017027863778,10.0
2487,58.513931888544896,10.0
2488,61.953366873065015,10.0
2489,58.77999226006191,10.0
2490,60.240905572755416,10.0
2491,58.68808049535604,10.0
2492,58.39783281733745,10.0
2493,59.07023993808049,10.0
2494,60.85526315789473,10.0
2495,58.1124226006192,10.0
2496,59.568498452012385,10.0
2497,60.15383126934984,10.0
2498,54.411764705882355,10.0
2499,59.32662538699691,10.0
2500,55.15673374613003,10.0
2501,59.70394736842105,10.0
2502,58.862229102167184,10.0
2503,57.386803405572756,10.0
2504,59.22987616099071,10.0
2505,53.46845975232198,10.0
2506,61.86145510835913,10.0
2507,55.05514705882353,10.0
2508,56.7530959752322,10.0
2509,53.797407120743024,10.0
2510,58.789667182662534,10.0
2511,59.63622291021673,10.0
2512,58.10758513931889,10.0
2513,60.400541795665625,10.0
2514,61.42608359133126,10.0
2515,57.14009287925697,10.0
2516,57.39647832817337,10.0
2517,58.23819659442726,10.0
2518,56.58378482972136,10.0
2519,59.10410216718265,10.0
2520,55.70820433436532,10.0
2521,60.56501547987615,10.0
2522,57.4109907120743,10.0
2523,59.32662538699691,10.0
2524,56.9562693498452,10.0
2525,61.595394736842124,10.0
2526,55.1905959752322,10.0
2527,58.547794117647065,10.0
2528,62.432275541795676,10.0
2529,58.69775541795666,10.0
2530,54.087654798761605,10.0
2531,58.533281733746136,10.0
2532,56.143575851393194,10.0
2533,61.885642414860676,10.0
2534,60.632739938080505,10.0
2535,58.08823529411765,10.0
2536,58.978328173374614,10.0
2537,62.190402476780186,10.0
2538,57.3577786377709,10.0
2539,60.28928018575851,10.0
2540,59.012190402476776,10.0
2541,58.1124226006192,10.0
2542,56.10971362229101,10.0
2543,62.13235294117646,10.0
2544,60.10061919504644,10.0
2545,59.834558823529406,10.0
2546,57.29489164086687,10.0
2547,56.61764705882353,10.0
2548,55.064821981424146,10.0
2549,59.345975232198136,10.0
2550,62.82410990712075,10.0
2551,58.044698142414866,10.0
2552,63.03695820433436,10.0
2553,60.695626934984524,10.0
2554,57.54160216718267,10.0
2555,58.789667182662534,10.0
2556,56.878869969040245,10.0
2557,59.471749226006196,10.0
2558,64.22213622291022,10.0
2559,58.833204334365334,10.0
2560,57.84636222910217,10.0
2561,60.75367647058823,10.0
2562,58.30592105263157,10.0
2563,60.70046439628483,10.0
2564,62.16137770897832,10.0
2565,64.06733746130031,10.0
2566,58.28657120743034,10.0
2567,59.64589783281734,10.0
2568,58.5719814241486,10.0
2569,59.77650928792569,10.0
2570,58.54295665634676,10.0
2571,60.705301857585134,10.0
2572,56.50638544891641,10.0
2573,58.17530959752322,10.0
2574,56.2983746130031,10.0
2575,61.22774767801858,10.0
2576,57.54643962848297,10.0
2577,59.887770897832816,10.0
2578,61.50348297213621,10.0
2579,57.551277089783284,10.0
2580,58.2140092879257,10.0
2581,55.16640866873064,10.0
2582,57.401315789473685,10.0
2583,61.49864551083591,10.0
2584,62.41776315789473,10.0
2585,59.31695046439628,10.0
2586,55.809791021671835,10.0
2587,60.642414860681114,10.0
2588,55.24864551083592,10.0
2589,60.274767801857585,10.0
2590,59.142801857585134,10.0
2591,61.67763157894738,10.0
2592,59.34597523219815,10.0
2593,63.167569659442734,10.0
2594,62.46130030959754,10.0
2595,59.278250773993804,10.0
2596,59.215363777089784,10.0
2597,54.93904798761611,10.0
2598,56.27418730650155,10.0
2599,57.62383900928792,10.0
2600,59.55882352941176,10.0
2601,62.46130030959754,10.0
2602,58.14628482972137,10.0
2603,57.33842879256966,10.0
2604,60.25058049535604,10.0
2605,57.98181114551084,10.0
2606,63.72871517027864,10.0
2607,58.204334365325074,10.0
2608,55.05030959752323,10.0
2609,58.38815789473683,10.0
2610,56.540247678018574,10.0
2611,60.54082817337461,10.0
2612,58.562306501547994,10.0
2613,61.89047987616098,10.0
2614,61.47445820433436,10.0
2615,59.74264705882353,10.0
2616,59.90228328173375,10.0
2617,58.184984520123834,10.0
2618,57.08688080495356,10.0
2619,55.335719814241486,10.0
2620,62.2049148606811,10.0
2621,63.34171826625386,10.0
2622,58.28657120743034,10.0
2623,61.784055727554176,10.0
2624,58.2140092879257,10.0
2625,61.66311919504645,10.0
2626,61.150348297213625,10.0
2627,58.31075851393189,10.0
2628,61.15034829721361,10.0
2629,56.390286377708975,10.0
2630,52.91698916408669,10.0
2631,57.67705108359134,10.0
2632,55.601780185758514,10.0
2633,60.705301857585134,10.0
2634,61.160023219814256,10.0
2635,60.79721362229103,10.0
2636,61.619582043343655,10.0
2637,56.87886996904025,10.0
2638,60.642414860681114,10.0
2639,55.05030959752322,10.0
2640,57.59965170278638,10.0
2641,59.72813467492261,10.0
2642,59.689434984520126,10.0
2643,56.622484520123834,10.0
2644,59.065402476780186,10.0
2645,57.70123839009288,10.0
2646,56.34191176470588,10.0
2647,60.24574303405572,10.0
2648,62.14202786377708,10.0
2649,56.30321207430341,10.0
2650,59.20085139318886,10.0
2651,54.44078947368422,10.0
2652,56.656346749226,10.0
2653,61.86629256965945,10.0
2654,58.3688080495356,10.0
2655,61.86629256965945,10.0
2656,60.2747678018576,10.0
2657,60.511803405572756,10.0
2658,62.48548761609908,10.0
2659,57.64802631578947,10.0
2660,61.363196594427244,10.0
2661,56.64667182662538,10.0
2662,61.97755417956655,10.0
2663,60.8407507739938,10.0
2664,59.36532507739939,10.0
2665,57.5125773993808,10.0
2666,61.116486068111456,10.0
2667,58.475232198142415,10.0
2668,60.250580495356026,10.0
2669,64.3188854489164,10.0
2670,58.85739164086687,10.0
2671,58.77999226006192,10.0
2672,57.21749226006192,10.0
2673,53.386222910216716,10.0
2674,59.45239938080495,10.0
2675,56.5499226006192,10.0
2676,58.42202012383901,10.0
2677,55.7952786377709,10.0
2678,59.36048761609908,10.0
2679,61.93401702786379,10.0
2680,58.509094427244584,10.0
2681,60.0812693498452,10.0
2682,58.6735681114551,10.0
2683,58.58649380804953,10.0
2684,59.907120743034056,10.0
2685,61.16002321981424,10.0
2686,59.39434984520125,10.0
2687,57.37712848297213,10.0
2688,61.43575851393189,10.0
2689,55.14222136222911,10.0
2690,59.200851393188856,10.0
2691,57.49322755417956,10.0
2692,58.45104489164086,10.0
2693,53.57972136222911,10.0
2694,58.997678018575854,10.0
2695,61.813080495356026,10.0
2696,56.88854489164087,10.0
2697,57.638351393188856,10.0
2698,61.580882352941174,10.0
2699,60.003869969040245,10.0
2700,61.35352167182663,10.0
2701,61.32449690402477,10.0
2702,63.53521671826626,10.0
2703,58.89609133126935,10.0
2704,58.61551857585139,10.0
2705,61.6486068111455,10.0
2706,55.86784055727554,10.0
2707,59.936145510835914,10.0
2708,59.68459752321982,10.0
2709,59.12345201238389,10.0
2710,58.90576625386997,10.0
2711,56.757933436532504,10.0
2712,53.61358359133128,10.0
2713,59.71845975232198,10.0
2714,61.56153250773994,10.0
2715,54.19407894736842,10.0
2716,59.805534055727556,10.0
2717,56.22581269349845,10.0
2718,54.276315789473685,10.0
2719,60.54082817337461,10.0
2720,62.73703560371517,10.0
2721,56.70472136222911,10.0
2722,58.51876934984521,10.0
2723,58.625193498452006,10.0
2724,57.21265479876162,10.0
2725,58.896091331269346,10.0
2726,57.048181114551085,10.0
2727,57.94794891640866,10.0
2728,53.25561145510835,10.0
2729,53.64744582043343,10.0
2730,60.221555727554176,10.0
2731,58.66873065015481,10.0
2732,57.37712848297213,10.0
2733,60.60371517027864,10.0
2734,56.98529411764706,10.0
2735,60.632739938080505,10.0
2736,58.58649380804953,10.0
2737,63.515866873065015,10.0
2738,57.83668730650155,10.0
2739,62.71284829721361,10.0
2740,59.283088235294116,10.0
2741,53.666795665634666,10.0
2742,61.22774767801858,10.0
2743,61.25193498452012,10.0
2744,61.05359907120743,10.0
2745,57.348103715170275,10.0
2746,60.090944272445824,10.0
2747,59.42821207430341,10.0
2748,57.18363003095975,10.0
2749,59.689434984520126,10.0
2750,60.89880030959751,10.0
2751,57.64802631578947,10.0
2752,55.113196594427244,10.0
2753,53.439434984520126,10.0
2754,55.17608359133127,10.0
2755,56.48219814241486,10.0
2756,59.53947368421053,10.0
2757,54.76973684210526,10.0
2758,56.046826625387006,10.0
2759,59.89744582043344,10.0
2760,63.08049535603715,10.0
2761,59.55882352941177,10.0
2762,58.673568111455104,10.0
2763,60.17801857585139,10.0
2764,52.404218266253864,10.0
2765,54.40692724458205,10.0
2766,54.368227554179555,10.0
2767,55.95975232198142,10.0
2768,56.699883900928796,10.0
2769,60.74883900928791,10.0
2770,64.64299535603713,10.0
2771,61.9485294117647,10.0
2772,53.690982972136226,10.0
2773,57.64802631578947,10.0
2774,60.7391640866873,10.0
2775,61.04876160990712,10.0
2776,57.202979876160995,10.0
2777,58.900928792569665,10.0
2778,61.21807275541795,10.0
2779,55.31153250773994,10.0
2780,57.27554179566564,10.0
2781,60.10545665634675,10.0
2782,59.181501547987615,10.0
2783,60.47794117647059,10.0
2784,56.530572755417964,10.0
2785,58.34462074303404,10.0
2786,63.0563080495356,10.0
2787,58.388157894736835,10.0
2788,56.62248452012385,10.0
2789,59.66041021671827,10.0
2790,58.7703173374613,10.0
2791,60.69078947368422,10.0
2792,58.09791021671827,10.0
2793,56.90305727554179,10.0
2794,59.960332817337466,10.0
2795,60.511803405572756,10.0
2796,61.44059597523219,10.0
2797,58.88641640866873,10.0
2798,56.79663312693498,10.0
2799,60.47794117647059,10.0
2800,57.55611455108359,10.0
2801,62.267801857585134,10.0
2802,58.591331269349844,10.0
2803,60.656927244582036,10.0
2804,58.53328173374613,10.0
2805,58.33010835913312,10.0
2806,56.593459752321984,10.0
2807,58.528444272445824,10.0
2808,58.50425696594428,10.0
2809,60.68595201238389,10.0
2810,64.25116099071207,10.0
2811,55.98393962848297,10.0
2812,58.91544117647058,10.0
2813,59.00251547987616,10.0
2814,56.356424148606806,10.0
2815,61.57120743034055,10.0
2816,58.630030959752325,10.0
2817,59.68459752321981,10.0
2818,60.66660216718266,10.0
2819,59.00735294117647,10.0
2820,61.953366873065015,10.0
2821,56.03231424148608,10.0
2822,58.53328173374613,10.0
2823,61.08262383900929,10.0
2824,60.50212848297213,10.0
2825,58.55263157894736,10.0
2826,54.155379256965944,10.0
2827,59.10410216718266,10.0
2828,59.616873065015476,10.0
2829,59.15247678018576,10.0
2830,60.0812693498452,10.0
2831,59.70878482972137,10.0
2832,57.48355263157894,10.0
2833,58.102747678018574,10.0
2834,61.45510835913313,10.0
2835,63.443304953560364,10.0
2836,58.93479102167183,10.0
2837,59.69910990712075,10.0
2838,58.262383900928796,10.0
2839,60.45375386996904,10.0
2840,53.773219814241486,10.0
2841,59.97000773993808,10.0
2842,60.652089783281724,10.0
2843,60.98103715170278,10.0
2844,61.86145510835913,10.0
2845,56.84500773993808,10.0
2846,59.002515479876166,10.0
2847,59.63138544891642,10.0
2848,60.7875386996904,10.0
2849,62.41776315789474,10.0
2850,60.37635448916408,10.0
2851,61.774380804953566,10.0
2852,57.58997678018576,10.0
2853,59.25406346749225,10.0
2854,55.10835913312694,10.0
2855,56.356424148606806,10.0
2856,59.39434984520124,10.0
2857,57.70607585139318,10.0
2858,58.107585139318886,10.0
2859,63.63196594427244,10.0
2860,60.835913312693506,10.0
2861,58.20433436532508,10.0
2862,57.991486068111456,10.0
2863,57.75445046439628,10.0
2864,58.07856037151702,10.0
2865,57.04334365325077,10.0
2866,61.280959752321984,10.0
2867,59.302438080495364,10.0
2868,59.23955108359133,10.0
2869,56.61764705882352,10.0
2870,56.85952012383901,10.0
2871,55.6985294117647,10.0
2872,55.030959752321984,10.0
2873,58.48006965944271,10.0
2874,60.44891640866874,10.0
2875,56.74342105263159,10.0
2876,63.55456656346749,10.0
2877,57.86087461300309,10.0
2878,55.64531733746129,10.0
2879,56.01780185758514,10.0
2880,59.97484520123839,10.0
2881,60.371517027863774,10.0
2882,60.74883900928791,10.0
2883,60.86493808049536,10.0
2884,58.692917956656345,10.0
2885,59.23471362229102,10.0
2886,56.40963622291022,10.0
2887,58.68808049535603,10.0
2888,56.39028637770898,10.0
2889,64.48819659442725,10.0
2890,56.0565015479876,10.0
2891,63.075657894736835,10.0
2892,54.9390479876161,10.0
2893,56.932082043343655,10.0
2894,56.549922600619205,10.0
2895,58.75580495356038,10.0
2896,62.35487616099071,10.0
2897,55.15189628482972,10.0
2898,59.713622291021665,10.0
2899,58.19465944272446,10.0
2900,60.105456656346746,10.0
2901,64.07701238390092,10.0
2902,57.140092879256976,10.0
2903,61.24226006191951,10.0
2904,58.52360681114551,10.0
2905,61.42608359133128,10.0
2906,60.71013931888545,10.0
2907,57.18846749226006,10.0
2908,57.01915634674922,10.0
2909,57.686726006191954,10.0
2910,57.77863777089783,10.0
2911,58.14628482972136,10.0
2912,56.10971362229101,10.0
2913,54.76489938080494,10.0
2914,60.92298761609908,10.0
2915,57.07720588235294,10.0
2916,58.61551857585139,10.0
2917,54.30050309597523,10.0
2918,58.23335913312694,10.0
2919,55.335719814241486,10.0
2920,65.1073916408669,10.0
2921,62.11300309597523,10.0
2922,53.216911764705884,10.0
2923,58.63003095975232,10.0
2924,60.03773219814242,10.0
2925,63.17240712074304,10.0
2926,58.262383900928796,10.0
2927,62.08881578947369,10.0
2928,61.967879256965944,10.0
2929,59.63622291021672,10.0
2930,58.60584365325078,10.0
2931,57.6625386996904,10.0
2932,54.70684984520125,10.0
2933,60.75367647058823,10.0
2934,57.270704334365334,10.0
2935,58.7219427244582,10.0
2936,59.69910990712074,10.0
2937,53.4249226006192,10.0
2938,55.166408668730654,10.0
2939,54.068304953560364,10.0
2940,56.78695820433437,10.0
2941,58.53811919504644,10.0
2942,60.139318885448915,10.0
2943,56.17743808049536,10.0
2944,57.18846749226005,10.0
2945,59.389512383900936,10.0
2946,57.49322755417957,10.0
2947,57.38680340557275,10.0
2948,56.593459752321984,10.0
2949,57.62383900928793,10.0
2950,61.45027089783281,10.0
2951,58.015673374613,10.0
2952,58.929953560371516,10.0
2953,58.20433436532508,10.0
2954,58.48006965944273,10.0
2955,57.62383900928792,10.0
2956,55.47600619195046,10.0
2957,59.66041021671827,10.0
2958,58.47523219814241,10.0
2959,55.79044117647059,10.0
2960,64.28502321981422,10.0
2961,59.21052631578947,10.0
2962,59.34597523219814,10.0
2963,56.53057275541795,10.0
2964,61.15518575851392,10.0
2965,57.889899380804955,10.0
2966,60.46826625386998,10.0
2967,53.50232198142414,10.0
2968,57.159442724458195,10.0
2969,58.238196594427244,10.0
2970,56.09520123839009,10.0
2971,58.83320433436533,10.0
2972,57.53192724458205,10.0
2973,57.92859907120743,10.0
2974,59.79102167182663,10.0
2975,61.37770897832817,10.0
2976,59.95065789473684,10.0
2977,59.20568885448917,10.0
2978,56.540247678018574,10.0
2979,60.50696594427244,10.0
2980,61.10197368421054,10.0
2981,57.98181114551084,10.0
2982,55.86300309597524,10.0
2983,58.48490712074303,10.0
2984,57.13525541795666,10.0
2985,56.42414860681115,10.0
2986,56.4483359133127,10.0
2987,56.87403250773993,10.0
2988,59.515286377708975,10.0
2989,56.03715170278638,10.0
2990,57.11106811145511,10.0
2991,62.785410216718276,10.0
2992,55.70820433436533,10.0
2993,60.453753869969034,10.0
2994,57.37712848297215,10.0
2995,57.54643962848298,10.0
2996,61.76954334365326,10.0
2997,60.250580495356026,10.0
2998,59.13796439628483,10.0
2999,60.835913312693506,10.0
3000,56.54992260061919,10.0
3001,59.14280185758514,10.0
3002,59.32662538699691,10.0
3003,55.4421439628483,10.0
3004,55.81462848297214,10.0
3005,58.93962848297214,10.0
3006,59.18633900928793,10.0
3007,57.580301857585134,10.0
3008,58.74129256965944,10.0
3009,53.58939628482973,10.0
3010,61.7405185758514,10.0
3011,57.15460526315788,10.0
3012,60.44407894736842,10.0
3013,59.49593653250774,10.0
3014,55.94040247678019,10.0
3015,60.052244582043336,10.0
3016,62.03076625386996,10.0
3017,64.64783281733745,10.0
3018,56.39512383900928,10.0
3019,54.78424922600619,10.0
3020,58.194659442724465,10.0
3021,56.19678792569658,10.0
3022,58.867066563467496,10.0
3023,55.8001160990712,10.0
3024,57.8657120743034,10.0
3025,58.9734907120743,10.0
3026,60.77786377708978,10.0
3027,59.11377708978329,10.0
3028,57.285216718266255,10.0
3029,64.20278637770897,10.0
3030,58.26722136222911,10.0
3031,55.97910216718267,10.0
3032,57.81250000000001,10.0
3033,56.09036377708978,10.0
3034,60.424729102167184,10.0
3035,55.079334365325074,10.0
3036,58.40750773993809,10.0
3037,58.43169504643963,10.0
3038,61.150348297213625,10.0
3039,60.337654798761605,10.0
3040,61.04392414860681,10.0
3041,60.037732198142415,10.0
3042,57.18363003095974,10.0
3043,62.60642414860681,10.0
3044,60.11029411764706,10.0
3045,59.955495356037154,10.0
3046,61.50832043343653,10.0
3047,57.004643962848306,10.0
3048,61.213235294117645,10.0
3049,59.25890092879257,10.0
3050,54.63912538699691,10.0
3051,52.665441176470594,10.0
3052,58.68808049535604,10.0
3053,53.77321981424149,10.0
3054,61.12132352941177,10.0
3055,59.31211300309597,10.0
3056,59.505611455108365,10.0
3057,61.4357585139319,10.0
3058,61.324496904024755,10.0
3059,54.01509287925697,10.0
3060,60.729489164086694,10.0
3061,57.0530185758514,10.0
3062,57.517414860681114,10.0
3063,62.88215944272447,10.0
3064,59.20568885448917,10.0
3065,59.58301083591332,10.0
3066,62.18556501547988,10.0
3067,58.12209752321981,10.0
3068,55.737229102167184,10.0
3069,62.5,10.0
3070,56.63699690402478,10.0
3071,59.38951238390092,10.0
3072,57.31907894736842,10.0
3073,61.06811145510836,10.0
3074,58.257546439628484,10.0
3075,59.80069659442725,10.0
3076,58.673568111455104,10.0
3077,55.98393962848298,10.0
3078,56.40963622291022,10.0
3079,57.05301857585139,10.0
3080,57.76412538699691,10.0
3081,60.676277089783284,10.0
3082,63.64164086687305,10.0
3083,58.05921052631579,10.0
3084,59.05572755417957,10.0
3085,58.59616873065016,10.0
3086,54.35371517027864,10.0
3087,60.966524767801864,10.0
3088,54.55688854489163,10.0
3089,55.61145510835913,10.0
3090,58.7703173374613,10.0
3091,53.34268575851394,10.0
3092,59.771671826625386,10.0
3093,58.79934210526316,10.0
3094,58.48490712074304,10.0
3095,55.95491486068113,10.0
3096,62.63061145510836,10.0
3097,55.39376934984519,10.0
3098,62.200077399380795,10.0
3099,56.520897832817326,10.0
3100,61.846942724458195,10.0
3101,59.66524767801858,10.0
3102,56.907894736842096,10.0
3103,54.721362229102155,10.0
3104,62.142027863777095,10.0
3105,63.78676470588234,10.0
3106,60.36667956656347,10.0
3107,58.88641640866873,10.0
3108,58.18014705882353,10.0
3109,58.20433436532508,10.0
3110,55.838815789473685,10.0
3111,60.76818885448917,10.0
3112,53.82159442724459,10.0
3113,63.549729102167184,10.0
3114,55.93072755417957,10.0
3115,61.22291021671826,10.0
3116,58.6687306501548,10.0
3117,54.315015479876166,10.0
3118,63.496517027863774,10.0
3119,57.45452786377708,10.0
3120,60.45859133126934,10.0
3121,61.75019349845202,10.0
3122,57.98181114551085,10.0
3123,57.952786377708975,10.0
3124,52.820239938080505,10.0
3125,61.827592879256976,10.0
3126,58.900928792569665,10.0
3127,59.25406346749226,10.0
3128,61.309984520123834,10.0
3129,54.76006191950464,10.0
3130,52.44775541795666,10.0
3131,56.74342105263158,10.0
3132,56.172600619195045,10.0
3133,62.49516253869968,10.0
3134,61.261609907120736,10.0
3135,62.12751547987615,10.0
3136,60.86493808049536,10.0
3137,59.19601393188855,10.0
3138,59.67492260061919,10.0
3139,60.066756965944265,10.0
3140,57.115905572755416,10.0
3141,57.014318885448915,10.0
3142,62.03076625386996,10.0
3143,58.21400928792569,10.0
3144,56.98529411764706,10.0
3145,60.100619195046434,10.0
3146,65.53792569659443,10.0
3147,56.52573529411764,10.0
3148,59.200851393188856,10.0
3149,55.52438080495356,10.0
3150,55.940402476780186,10.0
3151,60.21671826625387,10.0
3152,60.56017801857586,10.0
3153,56.98529411764706,10.0
3154,58.30592105263159,10.0
3155,59.79585913312694,10.0
3156,60.545665634674926,10.0
3157,57.0530185758514,10.0
3158,61.34868421052631,10.0
3159,56.5499226006192,10.0
3160,58.59616873065015,10.0
3161,62.18072755417955,10.0
3162,56.82565789473684,10.0
3163,60.93266253869968,10.0
3164,60.18285603715171,10.0
3165,59.345975232198136,10.0
3166,61.295472136222905,10.0
3167,58.22368421052631,10.0
3168,61.93885448916408,10.0
3169,57.028831269349844,10.0
3170,59.636222910216716,10.0
3171,57.469040247678016,10.0
3172,56.10971362229103,10.0
3173,57.12558049535603,10.0
3174,59.74264705882353,10.0
3175,62.36455108359134,10.0
3176,58.881578947368425,10.0
3177,56.220975232198136,10.0
3178,56.74825851393188,10.0
3179,61.0342492260062,10.0
3180,59.54431114551084,10.0
3181,58.38332043343653,10.0
3182,61.77438080495355,10.0
3183,63.196594427244584,10.0
3184,58.43653250773994,10.0
3185,58.75096749226006,10.0
3186,58.91060371517028,10.0
3187,60.26025541795666,10.0
3188,56.206462848297214,10.0
3189,60.10061919504645,10.0
3190,60.1296439628483,10.0
3191,58.38332043343654,10.0
3192,62.412925696594435,10.0
3193,58.354295665634666,10.0
3194,59.49593653250774,10.0
3195,59.5249613003096,10.0
3196,55.20994582043345,10.0
3197,59.22987616099072,10.0
3198,60.70530185758515,10.0
3199,57.5077399380805,10.0
3200,58.38332043343652,10.0
3201,56.13873839009288,10.0
3202,58.460719814241486,10.0
3203,56.23548761609908,10.0
3204,56.36126160990712,10.0
3205,56.49187306501548,10.0
3206,62.28231424148606,10.0
3207,56.748258513931894,10.0
3208,63.81095201238389,10.0
3209,59.2782507739938,10.0
3210,61.484133126934985,10.0
3211,62.16621517027864,10.0
3212,62.55321207430341,10.0
3213,58.50425696594427,10.0
3214,61.2906346749226,10.0
3215,60.50696594427245,10.0
3216,58.64938080495356,10.0
3217,58.199496904024755,10.0
3218,61.82275541795666,10.0
3219,54.208591331269346,10.0
3220,58.8186919504644,10.0
3221,62.04044117647059,10.0
3222,59.36532507739938,10.0
3223,61.387383900928796,10.0
3224,61.38254643962848,10.0
3225,57.19330495356037,10.0
3226,55.466331269349844,10.0
3227,55.69369195046439,10.0
3228,55.669504643962846,10.0
3229,58.76547987616099,10.0
3230,54.80359907120743,10.0
3231,58.489744582043336,10.0
3232,60.94233746130032,10.0
3233,60.49245356037151,10.0
3234,57.986648606811144,10.0
3235,57.9237616099071,10.0
3236,62.84829721362229,10.0
3237,58.77999226006192,10.0
3238,56.48703560371517,10.0
3239,56.878869969040245,10.0
3240,57.54643962848297,10.0
3241,57.45936532507739,10.0
3242,57.328753869969034,10.0
3243,58.11726006191952,10.0
3244,57.79798761609908,10.0
3245,57.41582817337461,10.0
3246,59.52012383900929,10.0
3247,57.68188854489164,10.0
3248,57.44485294117647,10.0
3249,60.14415634674922,10.0
3250,56.05166408668731,10.0
3251,58.22852167182663,10.0
3252,58.37364551083592,10.0
3253,60.158668730650156,10.0
3254,61.33417182662539,10.0
3255,60.41021671826625,10.0
3256,57.92859907120743,10.0
3257,61.953366873065015,10.0
3258,56.58378482972137,10.0
3259,57.09171826625387,10.0
3260,60.11513157894736,10.0
3261,56.351586687306515,10.0
3262,59.82004643962849,10.0
3263,62.97407120743034,10.0
3264,61.22291021671826,10.0
3265,60.37151702786376,10.0
3266,56.58378482972135,10.0
3267,60.211880804953566,10.0
3268,58.24787151702787,10.0
3269,58.64938080495356,10.0
3270,57.30940402476779,10.0
3271,57.66737616099071,10.0
3272,60.327979876160995,10.0
3273,57.449690402476776,10.0
3274,59.45723684210526,10.0
3275,61.914667182662534,10.0
3276,58.08339783281733,10.0
3277,56.912732198142415,10.0
3278,56.98529411764706,10.0
3279,55.771091331269346,10.0
3280,57.35777863777089,10.0
3281,59.16215170278638,10.0
3282,60.81172600619195,10.0
3283,60.35700464396285,10.0
3284,60.04256965944273,10.0
3285,57.76412538699691,10.0
3286,62.45646284829722,10.0
3287,59.220201238390075,10.0
3288,56.308049535603715,10.0
3289,58.14628482972136,10.0
3290,57.46904024767802,10.0
3291,58.34945820433436,10.0
3292,58.528444272445824,10.0
3293,61.309984520123834,10.0
3294,58.044698142414866,10.0
3295,58.58649380804953,10.0
3296,61.7405185758514,10.0
3297,60.31830495356038,10.0
3298,54.61977554179566,10.0
3299,58.32043343653251,10.0
3300,60.269930340557266,10.0
3301,58.03502321981425,10.0
3302,58.50909442724458,10.0
3303,62.3500386996904,10.0
3304,61.82759287925696,10.0
3305,56.68537151702787,10.0
3306,57.60932662538699,10.0
3307,59.684597523219814,10.0
3308,61.64376934984521,10.0
3309,60.26993034055728,10.0
3310,58.50909442724458,10.0
3311,61.02457430340558,10.0
3312,58.88641640866874,10.0
3313,62.13235294117647,10.0
3314,60.327979876160995,10.0
3315,59.61203560371517,10.0
3316,57.62867647058823,10.0
3317,59.31211300309597,10.0
3318,62.074303405572756,10.0
3319,59.616873065015476,10.0
3320,58.92027863777089,10.0
3321,55.78076625386997,10.0
3322,62.50483746130032,10.0
3323,55.76141640866873,10.0
3324,57.986648606811144,10.0
3325,61.06811145510836,10.0
3326,56.206462848297214,10.0
3327,60.31346749226006,10.0
3328,59.76199690402477,10.0
3329,59.5249613003096,10.0
3330,56.90789473684211,10.0
3331,58.6203560371517,10.0
3332,62.86280959752324,10.0
3333,62.05979102167183,10.0
3334,59.19601393188855,10.0
3335,56.71923374613004,10.0
3336,57.84152476780185,10.0
3337,59.196013931888544,10.0
3338,60.7875386996904,10.0
3339,58.79934210526316,10.0
3340,64.27051083591331,10.0
3341,56.308049535603715,10.0
3342,56.936919504643974,10.0
3343,55.76141640866873,10.0
3344,58.85255417956656,10.0
3345,58.85255417956656,10.0
3346,60.93266253869968,10.0
3347,58.25754643962848,10.0
3348,60.724651702786375,10.0
3349,60.99071207430341,10.0
3350,53.40073529411765,10.0
3351,58.136609907120736,10.0
3352,59.97484520123839,10.0
3353,58.8186919504644,10.0
3354,61.91466718266255,10.0
3355,58.33494582043343,10.0
3356,61.46962074303407,10.0
3357,59.099264705882355,10.0
3358,60.671439628482965,10.0
3359,58.28657120743034,10.0
3360,58.53328173374613,10.0
3361,60.29895510835913,10.0
3362,62.490325077399376,10.0
3363,55.97910216718266,10.0
3364,58.93962848297214,10.0
3365,56.06617647058823,10.0
3366,57.04334365325078,10.0
3367,56.60797213622291,10.0
3368,65.91524767801856,10.0
3369,59.171826625387006,10.0
3370,58.50425696594427,10.0
3371,59.099264705882355,10.0
3372,65.15576625386997,10.0
3373,59.1766640866873,10.0
3374,53.40073529411765,10.0
3375,58.02051083591331,10.0
3376,60.09094427244582,10.0
3377,58.102747678018574,10.0
3378,57.62867647058824,10.0
3379,59.23955108359134,10.0
3380,55.688854489164086,10.0
3381,58.78482972136222,10.0
3382,63.399767801857585,10.0
3383,60.511803405572756,10.0
3384,62.87732198142415,10.0
3385,59.47174922600619,10.0
3386,57.41582817337461,10.0
3387,57.98181114551083,10.0
3388,56.786958204334354,10.0
3389,60.37635448916408,10.0
3390,56.87403250773993,10.0
3391,55.50503095975233,10.0
3392,60.65208978328174,10.0
3393,59.99903250773993,10.0
3394,61.469620743034056,10.0
3395,62.558049535603715,10.0
3396,57.76412538699691,10.0
3397,55.872678018575854,10.0
3398,59.19117647058824,10.0
3399,60.94233746130032,10.0
3400,64.84616873065015,10.0
3401,62.824109907120736,10.0
3402,57.51741486068111,10.0
3403,58.80417956656348,10.0
3404,57.83184984520124,10.0
3405,56.554760061919495,10.0
3406,60.45859133126935,10.0
3407,57.58513931888545,10.0
3408,58.53328173374614,10.0
3409,59.59268575851393,10.0
3410,56.59829721362229,10.0
3411,62.32585139318886,10.0
3412,61.97755417956655,10.0
3413,62.15170278637772,10.0
3414,58.75096749226007,10.0
3415,62.96439628482972,10.0
3416,62.27747678018576,10.0
3417,57.54643962848297,10.0
3418,58.32527089783282,10.0
3419,58.84287925696595,10.0
3420,59.30727554179566,10.0
3421,55.601780185758514,10.0
3422,58.44620743034056,10.0
3423,58.2236842105263,10.0
3424,58.33010835913313,10.0
3425,56.9562693498452,10.0
3426,60.55050309597523,10.0
3427,56.53541021671826,10.0
3428,58.557469040247675,10.0
3429,59.80069659442724,10.0
3430,58.85739164086689,10.0
3431,60.976199690402474,10.0
3432,58.89609133126936,10.0
3433,55.161571207430335,10.0
3434,58.04953560371517,10.0
3435,54.88099845201238,10.0
3436,59.33630030959753,10.0
3437,61.895317337461286,10.0
3438,53.75870743034054,10.0
3439,55.91137770897833,10.0
3440,56.535410216718276,10.0
3441,54.69717492260061,10.0
3442,57.29489164086687,10.0
3443,54.27631578947369,10.0
3444,55.28734520123839,10.0
3445,61.6921439628483,10.0
3446,57.120743034055735,10.0
3447,56.187113003095966,10.0
3448,61.38254643962848,10.0
3449,56.878869969040245,10.0
3450,58.881578947368425,10.0
3451,52.29779411764706,10.0
3452,60.9375,10.0
3453,62.08397832817338,10.0
3454,60.013544891640855,10.0
3455,54.890673374613,10.0
3456,59.69910990712074,10.0
3457,58.95414086687306,10.0
3458,60.26509287925696,10.0
3459,55.27283281733746,10.0
3460,55.3453947368421,10.0
3461,54.46013931888544,10.0
3462,56.31772445820433,10.0
3463,56.878869969040245,10.0
3464,59.54431114551083,10.0
3465,61.784055727554176,10.0
3466,59.11861455108359,10.0
3467,62.04527863777089,10.0
3468,58.305921052631575,10.0
3469,60.037732198142415,10.0
3470,62.07914086687306,10.0
3471,59.71845975232198,10.0
3472,60.32314241486068,10.0
3473,58.76064241486068,10.0
3474,58.6687306501548,10.0
3475,60.92782507739939,10.0
3476,60.42472910216719,10.0
3477,57.86087461300309,10.0
3478,54.57140092879257,10.0
3479,62.229102167182646,10.0
3480,56.1000386996904,10.0
3481,56.69020897832817,10.0
3482,60.49245356037152,10.0
3483,59.539473684210535,10.0
3484,60.41021671826625,10.0
3485,57.87054953560371,10.0
3486,57.096555727554176,10.0
3487,60.36667956656347,10.0
3488,58.34945820433437,10.0
3489,56.699883900928796,10.0
3490,58.0108359133127,10.0
3491,58.015673374613,10.0
3492,57.32391640866873,10.0
3493,55.51470588235294,10.0
3494,55.55340557275542,10.0
3495,62.54353715170278,10.0
3496,58.03018575851394,10.0
3497,58.88157894736841,10.0
3498,56.5547600619195,10.0
3499,62.32585139318886,10.0
3500,57.07236842105263,10.0
3501,62.50967492260061,10.0
3502,63.26915634674923,10.0
3503,59.88777089783282,10.0
3504,57.744775541795676,10.0
3505,61.22774767801857,10.0
3506,54.702012383900936,10.0
3507,57.11106811145512,10.0
3508,60.032894736842096,10.0
3509,58.50909442724458,10.0
3510,59.64106037151703,10.0
3511,56.409636222910216,10.0
3512,62.41292569659442,10.0
3513,59.58784829721362,10.0
3514,57.79315015479875,10.0
3515,60.966524767801864,10.0
3516,55.553405572755416,10.0
3517,62.093653250774,10.0
3518,58.010835913312704,10.0
3519,57.49806501547988,10.0
3520,53.40073529411765,10.0
3521,59.49109907120743,10.0
3522,62.15170278637771,10.0
3523,55.56308049535605,10.0
3524,55.98393962848298,10.0
3525,56.56927244582043,10.0
3526,59.940982972136226,10.0
3527,60.74883900928793,10.0
3528,60.83107585139319,10.0
3529,52.767027863777095,10.0
3530,57.63351393188855,10.0
3531,59.433049535603715,10.0
3532,59.61203560371517,10.0
3533,61.30998452012385,10.0
3534,57.140092879256976,10.0
3535,56.94175696594428,10.0
3536,58.51393188854488,10.0
3537,57.91892414860681,10.0
3538,62.422600619195066,10.0
3539,60.216718266253864,10.0
3540,62.3500386996904,10.0
3541,56.308049535603715,10.0
3542,58.339783281733745,10.0
3543,56.757933436532504,10.0
3544,59.413699690402474,10.0
3545,54.66815015479876,10.0
3546,55.05030959752322,10.0
3547,60.168343653250766,10.0
3548,55.82914086687306,10.0
3549,58.47523219814241,10.0
3550,55.471168730650156,10.0
3551,58.455882352941174,10.0
3552,62.03560371517027,10.0
3553,62.94504643962849,10.0
3554,61.76470588235294,10.0
3555,59.39918730650156,10.0
3556,59.534636222910216,10.0
3557,56.37093653250774,10.0
3558,54.997097523219814,10.0
3559,60.49729102167183,10.0
3560,60.33765479876162,10.0
3561,58.15112229102167,10.0
3562,59.892608359133135,10.0
3563,63.520704334365334,10.0
3564,58.07856037151702,10.0
3565,52.718653250774,10.0
3566,60.845588235294116,10.0
3567,59.54914860681114,10.0
3568,54.45530185758514,10.0
3569,59.44272445820433,10.0
3570,64.27051083591331,10.0
3571,56.96110681114551,10.0
3572,62.26780185758515,10.0
3573,58.49458204334365,10.0
3574,62.18556501547988,10.0
3575,62.36938854489164,10.0
3576,61.40189628482973,10.0
3577,56.22581269349845,10.0
3578,60.26509287925696,10.0
3579,59.72813467492261,10.0
3580,58.93479102167183,10.0
3581,56.67085913312694,10.0
3582,58.15595975232197,10.0
3583,61.82275541795667,10.0
3584,55.437306501547994,10.0
3585,55.563080495356026,10.0
3586,61.266447368421055,10.0
3587,58.53328173374612,10.0
3588,56.20646284829721,10.0
3589,56.87886996904026,10.0
3590,60.0328947368421,10.0
3591,60.23606811145511,10.0
3592,59.05572755417956,10.0
3593,60.265092879256976,10.0
3594,60.94717492260061,10.0
3595,61.63893188854489,10.0
3596,60.47310371517028,10.0
3597,53.55069659442725,10.0
3598,57.18846749226006,10.0
3599,60.98103715170278,10.0
3600,59.80069659442724,10.0
3601,60.289280185758514,10.0
3602,59.40402476780186,10.0
3603,55.78076625386998,10.0
3604,56.191950464396285,10.0
3605,58.24787151702786,10.0
3606,60.49245356037152,10.0
3607,57.60932662538699,10.0
3608,55.969427244582036,10.0
3609,60.052244582043336,10.0
3610,60.21188080495356,10.0
3611,58.82836687306502,10.0
3612,55.88235294117647,10.0
3613,61.479295665634666,10.0
3614,59.65073529411766,10.0
3615,61.15034829721361,10.0
3616,58.03018575851394,10.0
3617,58.596168730650156,10.0
3618,59.86358359133127,10.0
3619,54.26664086687306,10.0
3620,58.528444272445824,10.0
3621,54.90034829721362,10.0
3622,55.58243034055728,10.0
3623,58.17530959752322,10.0
3624,62.97407120743034,10.0
3625,54.774574303405565,10.0
3626,59.931308049535595,10.0
3627,61.42608359133126,10.0
3628,58.44620743034055,10.0
3629,59.60719814241486,10.0
3630,61.18421052631578,10.0
3631,60.26025541795666,10.0
3632,55.442143962848306,10.0
3633,64.04315015479877,10.0
3634,56.98045665634675,10.0
3635,53.86513157894737,10.0
3636,58.475232198142415,10.0
3637,60.27960526315789,10.0
3638,59.18633900928793,10.0
3639,58.53811919504645,10.0
3640,61.09713622291022,10.0
3641,60.15383126934984,10.0
3642,58.039860681114554,10.0
3643,57.304566563467496,10.0
3644,58.005998452012385,10.0
3645,60.00870743034056,10.0
3646,60.77786377708978,10.0
3647,55.606617647058826,10.0
3648,57.435178018575854,10.0
3649,58.538119195046434,10.0
3650,58.170472136222905,10.0
3651,56.88370743034056,10.0
3652,56.13873839009288,10.0
3653,61.145510835913306,10.0
3654,58.673568111455104,10.0
3655,60.003869969040245,10.0
3656,54.97291021671827,10.0
3657,57.32391640866873,10.0
3658,54.755224458204324,10.0
3659,62.42260061919505,10.0
3660,59.065402476780186,10.0
3661,58.460719814241486,10.0
3662,60.265092879256976,10.0
3663,60.71981424148606,10.0
3664,54.547213622291025,10.0
3665,60.642414860681114,10.0
3666,57.193304953560364,10.0
3667,59.49593653250774,10.0
3668,56.76760835913313,10.0
3669,54.70684984520125,10.0
3670,61.51315789473685,10.0
3671,59.099264705882355,10.0
3672,62.983746130030966,10.0
3673,57.37712848297214,10.0
3674,63.491679566563455,10.0
3675,59.66041021671826,10.0
3676,54.61010061919505,10.0
3677,58.06404798761611,10.0
3678,58.00116099071208,10.0
3679,59.81037151702786,10.0
3680,60.89396284829721,10.0
3681,62.05495356037152,10.0
3682,64.35758513931887,10.0
3683,54.88099845201238,10.0
3684,59.30243808049536,10.0
3685,61.827592879256976,10.0
3686,55.75174148606811,10.0
3687,57.54160216718266,10.0
3688,59.44756191950464,10.0
3689,59.200851393188856,10.0
3690,59.200851393188856,10.0
3691,59.98935758513932,10.0
3692,58.3107585139319,10.0
3693,54.35371517027864,10.0
3694,60.63757739938081,10.0
3695,57.69640092879257,10.0
3696,60.42956656346749,10.0
3697,58.80417956656348,10.0
3698,60.240905572755416,10.0
3699,55.18575851393188,10.0
3700,58.60584365325078,10.0
3701,61.82759287925696,10.0
3702,57.72542569659443,10.0
3703,58.48490712074303,10.0
3704,61.67279411764706,10.0
3705,61.95336687306502,10.0
3706,57.14976780185759,10.0
3707,60.89396284829721,10.0
3708,56.66602167182663,10.0
3709,58.862229102167184,10.0
3710,55.83881578947369,10.0
3711,54.52302631578947,10.0
3712,65.39280185758514,10.0
3713,59.03637770897833,10.0
3714,66.10874613003095,10.0
3715,59.587848297213625,10.0
3716,59.06056501547988,10.0
3717,60.8891253869969,10.0
3718,57.202979876160995,10.0
3719,56.27902476780186,10.0
3720,61.90015479876162,10.0
3721,57.02883126934984,10.0
3722,60.274767801857585,10.0
3723,59.31211300309597,10.0
3724,61.80340557275543,10.0
3725,55.640479876160995,10.0
3726,58.7171052631579,10.0
3727,57.681888544891635,10.0
3728,61.66795665634675,10.0
3729,54.18924148606811,10.0
3730,57.952786377708975,10.0
3731,57.96729876160991,10.0
3732,56.35158668730651,10.0
3733,54.90518575851394,10.0
3734,59.65557275541795,10.0
3735,58.243034055727556,10.0
3736,57.36745356037152,10.0
3737,58.891253869969034,10.0
3738,58.107585139318886,10.0
3739,61.67279411764706,10.0
3740,63.14338235294116,10.0
3741,58.35429566563467,10.0
3742,58.83320433436532,10.0
3743,58.591331269349844,10.0
3744,56.08552631578947,10.0
3745,56.87403250773993,10.0
3746,63.93672600619195,10.0
3747,58.85739164086687,10.0
3748,59.49109907120743,10.0
3749,53.63777089783282,10.0
3750,62.09365325077398,10.0
3751,53.937693498452006,10.0
3752,58.35429566563467,10.0
3753,55.67917956656347,10.0
3754,60.10545665634675,10.0
3755,60.15383126934984,10.0
3756,57.648026315789465,10.0
3757,58.83804179566564,10.0
3758,59.283088235294116,10.0
3759,61.63409442724457,10.0
3760,58.84771671826625,10.0
3761,60.34732972136223,10.0
3762,62.64512383900927,10.0
3763,59.442724458204324,10.0
3764,59.113777089783284,10.0
3765,60.352167182662534,10.0
3766,55.79044117647059,10.0
3767,61.79373065015479,10.0
3768,59.40402476780185,10.0
3769,63.0563080495356,10.0
3770,59.19117647058823,10.0
3771,58.015673374613,10.0
3772,58.89125386996904,10.0
3773,59.68943498452012,10.0
3774,55.63080495356037,10.0
3775,58.847716718266255,10.0
3776,60.245743034055735,10.0
3777,60.32314241486068,10.0
3778,60.92298761609907,10.0
3779,58.22368421052631,10.0
3780,63.7142027863777,10.0
3781,57.94794891640867,10.0
3782,58.823529411764696,10.0
3783,58.15112229102167,10.0
3784,58.93962848297213,10.0
3785,54.60042569659442,10.0
3786,54.77941176470588,10.0
3787,58.867066563467496,10.0
3788,58.85255417956656,10.0
3789,62.58223684210526,10.0
3790,60.75851393188856,10.0
3791,59.76199690402477,10.0
3792,59.53947368421051,10.0
3793,58.28173374613004,10.0
3794,58.180147058823536,10.0
3795,63.656153250774,10.0
3796,59.23471362229102,10.0
3797,58.74613003095974,10.0
3798,58.997678018575854,10.0
3799,55.21478328173375,10.0
3800,58.412345201238395,10.0
3801,58.257546439628484,10.0
3802,54.397252321981426,10.0
3803,57.63351393188856,10.0
3804,62.26296439628484,10.0
3805,57.56095201238389,10.0
3806,57.41099071207431,10.0
3807,55.37441950464397,10.0
3808,56.08552631578947,10.0
3809,57.178792569659436,10.0
3810,59.17666408668731,10.0
3811,61.10197368421053,10.0
3812,60.34732972136223,10.0
3813,61.01973684210527,10.0
3814,53.43459752321981,10.0
3815,63.45297987616098,10.0
3816,55.81462848297213,10.0
3817,59.268575851393194,10.0
3818,57.94311145510835,10.0
3819,57.89957430340558,10.0
3820,58.18982198142414,10.0
3821,54.310178018575854,10.0
3822,55.20994582043344,10.0
3823,56.709558823529406,10.0
3824,57.25619195046439,10.0
3825,58.025348297213625,10.0
3826,61.87596749226006,10.0
3827,58.68324303405572,10.0
3828,58.431695046439636,10.0
3829,55.113196594427244,10.0
3830,59.6797600619195,10.0
3831,60.42956656346752,10.0
3832,58.833204334365334,10.0
3833,59.91195820433436,10.0
3834,57.34326625386996,10.0
3835,59.56849845201238,10.0
3836,55.621130030959755,10.0
3837,57.65286377708978,10.0
3838,59.29760061919504,10.0
3839,58.5719814241486,10.0
3840,59.30727554179567,10.0
3841,58.37848297213622,10.0
3842,56.3999613003096,10.0
3843,62.22910216718266,10.0
3844,60.424729102167184,10.0
3845,57.38196594427245,10.0
3846,59.0702399380805,10.0
3847,65.3831269349845,10.0
3848,56.75793343653251,10.0
3849,61.25193498452012,10.0
3850,58.102747678018574,10.0
3851,60.898800309597526,10.0
3852,58.630030959752325,10.0
3853,57.34326625386997,10.0
3854,60.20220588235294,10.0
3855,59.97000773993809,10.0
3856,56.840170278637764,10.0
3857,58.107585139318886,10.0
3858,54.32952786377709,10.0
3859,58.504256965944265,10.0
3860,62.0984907120743,10.0
3861,57.43034055727554,10.0
3862,57.73026315789474,10.0
3863,57.575464396284836,10.0
3864,59.099264705882355,10.0
3865,62.24845201238391,10.0
3866,56.075851393188856,10.0
3867,57.08688080495355,10.0
3868,55.49535603715169,10.0
3869,63.40944272445821,10.0
3870,63.12403250773994,10.0
3871,60.52147832817338,10.0
3872,61.32933436532509,10.0
3873,53.78773219814241,10.0
3874,61.537345201238395,10.0
3875,57.057856037151694,10.0
3876,56.76760835913312,10.0
3877,59.08958978328174,10.0
3878,52.26393188854489,10.0
3879,58.95897832817337,10.0
3880,56.64183436532507,10.0
3881,54.49883900928793,10.0
3882,62.53869969040246,10.0
3883,56.87886996904025,10.0
3884,57.85119969040248,10.0
3885,57.0046439628483,10.0
3886,58.538119195046434,10.0
3887,61.47445820433436,10.0
3888,55.780766253869984,10.0
3889,56.19678792569658,10.0
3890,52.58804179566564,10.0
3891,59.10893962848296,10.0
3892,60.9375,10.0
3893,58.576818885448915,10.0
3894,61.6969814241486,10.0
3895,62.92569659442723,10.0
3896,62.86764705882353,10.0
3897,62.91602167182664,10.0
3898,62.96923374613005,10.0
3899,60.09094427244581,10.0
3900,60.294117647058826,10.0
3901,61.99206656346749,10.0
3902,60.14899380804953,10.0
3903,55.853328173374614,10.0
3904,56.31288699690403,10.0
3905,60.50696594427245,10.0
3906,55.46149380804954,10.0
3907,58.475232198142415,10.0
3908,57.97213622291022,10.0
3909,55.85816563467492,10.0
3910,55.05030959752322,10.0
3911,54.745549535603715,10.0
3912,56.41931114551084,10.0
3913,53.98123065015481,10.0
3914,64.18827399380805,10.0
3915,56.17260061919504,10.0
3916,60.12964396284829,10.0
3917,53.79256965944272,10.0
3918,58.455882352941174,10.0
3919,55.65499226006192,10.0
3920,63.47716718266256,10.0
3921,64.64299535603715,10.0
3922,59.33630030959752,10.0
3923,58.39783281733746,10.0
3924,55.29702012383902,10.0
3925,60.80688854489164,10.0
3926,64.37209752321982,10.0
3927,61.15518575851394,10.0
3928,56.632159442724465,10.0
3929,58.31559597523219,10.0
3930,59.26373839009288,10.0
3931,58.38815789473685,10.0
3932,58.88157894736842,10.0
3933,60.0812693498452,10.0
3934,59.67976006191951,10.0
3935,61.16969814241485,10.0
3936,52.89280185758514,10.0
3937,58.204334365325074,10.0
3938,58.1607972136223,10.0
3939,58.34945820433437,10.0
3940,64.63332043343654,10.0
3941,59.079914860681114,10.0
3942,55.99361455108359,10.0
3943,58.86706656346749,10.0
3944,60.95201238390092,10.0
3945,59.43304953560372,10.0
3946,58.286571207430335,10.0
3947,62.591911764705884,10.0
3948,60.16350619195046,10.0
3949,55.664667182662534,10.0
3950,59.283088235294116,10.0
3951,59.77650928792569,10.0
3952,56.172600619195045,10.0
3953,60.095781733746136,10.0
3954,56.31772445820433,10.0
3955,55.384094427244584,10.0
3956,57.91408668730651,10.0
3957,58.7219427244582,10.0
3958,54.36339009287926,10.0
3959,60.342492260061924,10.0
3960,56.58378482972136,10.0
3961,58.83320433436533,10.0
3962,59.805534055727556,10.0
3963,58.84287925696595,10.0
3964,56.40479876160991,10.0
3965,61.73084365325077,10.0
3966,62.61609907120743,10.0
3967,58.33494582043344,10.0
3968,58.16563467492261,10.0
3969,56.52573529411765,10.0
3970,61.551857585139324,10.0
3971,55.62596749226005,10.0
3972,59.29276315789473,10.0
3973,58.06404798761609,10.0
3974,60.44407894736842,10.0
3975,57.870549535603715,10.0
3976,61.44543343653251,10.0
3977,56.346749226006196,10.0
3978,62.678986068111456,10.0
3979,57.83668730650155,10.0
3980,59.86842105263158,10.0
3981,55.14222136222911,10.0
3982,62.13719040247679,10.0
3983,56.206462848297214,10.0
3984,58.673568111455104,10.0
3985,63.051470588235304,10.0
3986,59.00251547987616,10.0
3987,57.83668730650155,10.0
3988,56.912732198142415,10.0
3989,59.936145510835914,10.0
3990,56.83049535603715,10.0
3991,54.04895510835913,10.0
3992,61.256772445820445,10.0
3993,63.225619195046434,10.0
3994,60.26025541795667,10.0
3995,52.85410216718267,10.0
3996,55.70336687306502,10.0
3997,60.97136222910217,10.0
3998,57.1546052631579,10.0
3999,59.9796826625387,10.0
4000,58.89609133126936,10.0
4001,59.084752321981426,10.0
4002,59.91195820433438,10.0
4003,59.766834365325074,10.0
4004,55.40828173374612,10.0
4005,61.484133126934985,10.0
4006,61.7453560371517,10.0
4007,61.30030959752321,10.0
4008,60.41989164086687,10.0
4009,54.97774767801858,10.0
4010,57.89957430340557,10.0
4011,62.67414860681115,10.0
4012,57.207817337461286,10.0
4013,64.2511609907121,10.0
4014,54.93904798761611,10.0
4015,53.19756191950465,10.0
4016,61.37287151702785,10.0
4017,59.76199690402477,10.0
4018,63.12886996904023,10.0
4019,57.24167956656347,10.0
4020,63.28366873065015,10.0
4021,57.89473684210526,10.0
4022,54.663312693498455,10.0
4023,56.148413312693506,10.0
4024,59.805534055727556,10.0
4025,59.142801857585134,10.0
4026,60.119969040247675,10.0
4027,59.36532507739939,10.0
4028,60.676277089783284,10.0
4029,60.352167182662534,10.0
4030,57.50773993808049,10.0
4031,54.11667956656346,10.0
4032,61.37770897832819,10.0
4033,57.130417956656345,10.0
4034,60.90363777089783,10.0
4035,61.32933436532509,10.0
4036,57.24167956656347,10.0
4037,63.249806501547994,10.0
4038,58.65905572755418,10.0
4039,55.1905959752322,10.0
4040,52.73800309597522,10.0
4041,58.73161764705884,10.0
4042,61.82759287925696,10.0
4043,54.17472910216719,10.0
4044,62.86280959752321,10.0
4045,54.69233746130031,10.0
4046,52.4187306501548,10.0
4047,57.957623839009294,10.0
4048,60.49729102167183,10.0
4049,59.05089009287926,10.0
4050,56.73374613003096,10.0
4051,57.1062306501548,10.0
4052,60.98103715170278,10.0
4053,58.8719040247678,10.0
4054,59.84423374613003,10.0
4055,57.12074303405573,10.0
4056,59.69910990712075,10.0
4057,56.18711300309597,10.0
4058,60.83591331269349,10.0
4059,57.83184984520125,10.0
4060,61.522832817337466,10.0
4061,60.58920278637771,10.0
4062,56.78695820433436,10.0
4063,54.005417956656345,10.0
4064,58.03502321981424,10.0
4065,57.309404024767815,10.0
4066,59.11377708978327,10.0
4067,60.976199690402474,10.0
4068,56.39512383900929,10.0
4069,55.335719814241486,10.0
4070,60.724651702786375,10.0
4071,62.746710526315795,10.0
4072,56.88854489164087,10.0
4073,61.65828173374613,10.0
4074,58.98800309597524,10.0
4075,61.98239164086687,10.0
4076,53.09113777089783,10.0
4077,59.71362229102167,10.0
4078,57.12558049535603,10.0
4079,58.9734907120743,10.0
4080,57.28037925696595,10.0
4081,55.96942724458205,10.0
4082,55.6453173374613,10.0
4083,60.342492260061924,10.0
4084,59.64106037151703,10.0
4085,59.9264705882353,10.0
4086,60.77302631578946,10.0
4087,54.3827399380805,10.0
4088,59.99419504643962,10.0
4089,57.89957430340558,10.0
4090,58.692917956656345,10.0
4091,59.33146284829722,10.0
4092,53.54102167182663,10.0
4093,56.598297213622295,10.0
4094,60.45859133126935,10.0
4095,60.729489164086694,10.0
4096,58.77999226006191,10.0
4097,58.30108359133126,10.0
4098,58.76064241486068,10.0
4099,59.10410216718267,10.0
4100,58.04469814241486,10.0
4101,61.36803405572755,10.0
4102,60.72948916408668,10.0
4103,56.73374613003096,10.0
4104,59.25890092879257,10.0
4105,60.274767801857585,10.0
4106,57.64802631578948,10.0
4107,56.01296439628483,10.0
4108,61.70181888544891,10.0
4109,63.12403250773994,10.0
4110,57.033668730650156,10.0
4111,61.26644736842104,10.0
4112,59.021865325077385,10.0
4113,62.17589009287928,10.0
4114,59.350812693498455,10.0
4115,63.249806501548,10.0
4116,60.65692724458205,10.0
4117,57.56095201238389,10.0
4118,52.950851393188856,10.0
4119,62.872484520123834,10.0
4120,57.02399380804953,10.0
4121,60.80688854489164,10.0
4122,58.24303405572755,10.0
4123,55.253482972136226,10.0
4124,57.40131578947368,10.0
4125,53.216911764705884,10.0
4126,55.72755417956657,10.0
4127,56.898219814241486,10.0
4128,58.262383900928796,10.0
4129,60.68595201238389,10.0
4130,62.59191176470587,10.0
4131,63.806114551083574,10.0
4132,59.47174922600619,10.0
4133,56.92724458204334,10.0
4134,59.96033281733746,10.0
4135,58.6203560371517,10.0
4136,58.89609133126935,10.0
4137,60.090944272445824,10.0
4138,58.48490712074304,10.0
4139,55.737229102167184,10.0
4140,59.73297213622292,10.0
4141,57.841524767801864,10.0
4142,59.68459752321982,10.0
4143,57.827012383900936,10.0
4144,51.34481424148606,10.0
4145,59.0702399380805,10.0
4146,62.25812693498451,10.0
4147,57.84152476780186,10.0
4148,59.59752321981425,10.0
4149,61.97755417956657,10.0
4150,59.02670278637771,10.0
4151,57.952786377708975,10.0
4152,59.54914860681115,10.0
4153,58.75096749226006,10.0
4154,61.42608359133126,10.0
4155,60.879450464396285,10.0
4156,56.90789473684211,10.0
4157,61.145510835913306,10.0
4158,60.09578173374613,10.0
4159,59.297600619195045,10.0
4160,58.92995356037152,10.0
4161,57.435178018575854,10.0
4162,60.652089783281724,10.0
4163,57.99632352941177,10.0
4164,56.23548761609908,10.0
4165,56.42414860681113,10.0
4166,59.58784829721362,10.0
4167,64.54140866873064,10.0
4168,59.98452012383901,10.0
4169,61.140673374613,10.0
4170,54.05379256965944,10.0
4171,56.16776315789474,10.0
4172,60.913312693498455,10.0
4173,56.62732198142415,10.0
4174,60.03773219814242,10.0
4175,62.64512383900929,10.0
4176,60.308630030959755,10.0
4177,56.57894736842106,10.0
4178,59.31695046439628,10.0
4179,60.845588235294116,10.0
4180,57.004643962848284,10.0
4181,59.32662538699691,10.0
4182,57.807662538699695,10.0
4183,58.407507739938076,10.0
4184,62.20007739938081,10.0
4185,58.62519349845201,10.0
4186,57.57062693498452,10.0
4187,60.36184210526315,10.0
4188,53.23142414860681,10.0
4189,55.432469040247675,10.0
4190,57.00948142414861,10.0
4191,61.05359907120743,10.0
4192,57.63835139318885,10.0
4193,60.04256965944273,10.0
4194,59.331462848297214,10.0
4195,60.908475232198136,10.0
4196,58.683243034055714,10.0
4197,58.38815789473684,10.0
4198,59.22020123839009,10.0
4199,58.039860681114554,10.0
4200,61.26160990712075,10.0
4201,56.25483746130031,10.0
4202,56.13390092879256,10.0
4203,57.55611455108359,10.0
4204,60.835913312693506,10.0
4205,57.17395510835914,10.0
4206,56.685371517027875,10.0
4207,59.737809597523224,10.0
4208,60.913312693498455,10.0
4209,55.621130030959755,10.0
4210,58.60584365325077,10.0
4211,60.36667956656347,10.0
4212,61.92917956656347,10.0
4213,57.07236842105263,10.0
4214,58.663893188854495,10.0
4215,54.96807275541795,10.0
4216,58.325270897832816,10.0
4217,61.7405185758514,10.0
4218,61.17937306501546,10.0
4219,57.35777863777089,10.0
4220,53.81675696594427,10.0
4221,53.381385448916404,10.0
4222,62.97890866873065,10.0
4223,58.422020123839,10.0
4224,59.46691176470589,10.0
4225,59.781346749226,10.0
4226,59.47658668730651,10.0
4227,62.156540247678016,10.0
4228,55.01160990712074,10.0
4229,63.48200464396285,10.0
4230,58.84771671826624,10.0
4231,62.761222910216716,10.0
4232,56.63699690402477,10.0
4233,60.79721362229102,10.0
4234,58.13177244582044,10.0
4235,57.89473684210526,10.0
4236,58.95897832817337,10.0
4237,60.961687306501545,10.0
4238,58.596168730650156,10.0
4239,55.896865325077385,10.0
4240,60.76818885448915,10.0
4241,62.166215170278655,10.0
4242,60.676277089783284,10.0
4243,55.853328173374614,10.0
4244,56.11455108359134,10.0
4245,61.967879256965944,10.0
4246,60.43924148606811,10.0
4247,59.54914860681115,10.0
4248,57.30456656346749,10.0
4249,58.813854489164086,10.0
4250,51.79469814241486,10.0
4251,63.58359133126934,10.0
4252,59.48626160990712,10.0
4253,59.902283281733745,10.0
4254,57.57546439628483,10.0
4255,58.54779411764706,10.0
4256,55.06965944272446,10.0
4257,57.517414860681114,10.0
4258,56.82565789473683,10.0
4259,58.591331269349844,10.0
4260,59.85390866873064,10.0
4261,58.28173374613002,10.0
4262,62.591911764705884,10.0
4263,62.601586687306494,10.0
4264,59.71362229102167,10.0
4265,57.43517801857585,10.0
4266,56.93691950464396,10.0
4267,60.96652476780185,10.0
4268,59.07507739938081,10.0
4269,57.60448916408668,10.0
4270,61.343846749226,10.0
4271,61.42124613003096,10.0
4272,59.00735294117648,10.0
4273,55.93556501547988,10.0
4274,58.04953560371517,10.0
4275,62.07914086687306,10.0
4276,64.43498452012383,10.0
4277,59.002515479876166,10.0
4278,61.232585139318886,10.0
4279,57.65770123839009,10.0
4280,59.30727554179566,10.0
4281,60.97136222910217,10.0
4282,62.7950851393189,10.0
4283,63.63196594427245,10.0
4284,60.487616099071204,10.0
4285,56.699883900928796,10.0
4286,60.45859133126935,10.0
4287,60.55534055727554,10.0
4288,64.59462074303406,10.0
4289,57.88022445820433,10.0
4290,61.78405572755419,10.0
4291,59.7716718266254,10.0
4292,56.50638544891641,10.0
4293,61.12132352941177,10.0
