sample_id,accuracy,window_size
0,57.59965170278638,25.0
1,54.547213622291025,25.0
2,59.83939628482971,25.0
3,60.47310371517028,25.0
4,57.19330495356038,25.0
5,57.12074303405573,25.0
6,60.3811919504644,25.0
7,56.36609907120743,25.0
8,58.35429566563467,25.0
9,56.08068885448916,25.0
10,62.26296439628483,25.0
11,56.67085913312693,25.0
12,57.20297987616099,25.0
13,53.96188080495356,25.0
14,56.79663312693498,25.0
15,56.767608359133135,25.0
16,55.52438080495355,25.0
17,54.30534055727554,25.0
18,59.72813467492261,25.0
19,55.51954334365325,25.0
20,57.79798761609908,25.0
21,57.18363003095974,25.0
22,54.62461300309597,25.0
23,55.6985294117647,25.0
24,54.45530185758514,25.0
25,59.03637770897833,25.0
26,59.57333591331269,25.0
27,57.46420278637771,25.0
28,55.843653250774,25.0
29,53.7780572755418,25.0
30,56.245162538699695,25.0
31,55.88719040247678,25.0
32,55.81462848297213,25.0
33,54.21826625386997,25.0
34,56.80147058823529,25.0
35,56.61764705882352,25.0
36,56.68537151702786,25.0
37,57.580301857585134,25.0
38,55.21478328173376,25.0
39,59.26373839009289,25.0
40,57.038506191950475,25.0
41,56.91273219814241,25.0
42,56.56443498452012,25.0
43,57.83668730650154,25.0
44,58.91060371517027,25.0
45,62.27747678018576,25.0
46,61.77921826625386,25.0
47,58.27689628482972,25.0
48,55.81462848297213,25.0
49,54.039280185758514,25.0
50,58.57198142414861,25.0
51,57.2610294117647,25.0
52,55.403444272445824,25.0
53,57.66253869969041,25.0
54,56.59345975232198,25.0
55,56.23065015479876,25.0
56,60.574690402476776,25.0
57,59.099264705882355,25.0
58,58.88641640866872,25.0
59,58.049535603715164,25.0
60,57.314241486068106,25.0
61,57.202979876160995,25.0
62,58.726780185758514,25.0
63,59.0750773993808,25.0
64,56.89338235294117,25.0
65,62.6064241486068,25.0
66,55.935565015479874,25.0
67,58.35913312693498,25.0
68,59.91679566563467,25.0
69,55.93556501547988,25.0
70,52.752515479876166,25.0
71,54.98742260061919,25.0
72,57.159442724458195,25.0
73,53.429760061919495,25.0
74,60.1296439628483,25.0
75,58.5187693498452,25.0
76,55.500193498452,25.0
77,57.17879256965945,25.0
78,57.652863777089784,25.0
79,57.096555727554176,25.0
80,58.43169504643963,25.0
81,55.2921826625387,25.0
82,55.15673374613004,25.0
83,54.50367647058823,25.0
84,58.17047213622292,25.0
85,58.093072755417964,25.0
86,56.767608359133135,25.0
87,55.93072755417956,25.0
88,54.28599071207431,25.0
89,58.542956656346746,25.0
90,57.44485294117647,25.0
91,56.71923374613004,25.0
92,52.86861455108358,25.0
93,57.323916408668715,25.0
94,51.11261609907121,25.0
95,61.68246904024768,25.0
96,58.60584365325077,25.0
97,60.71981424148606,25.0
98,54.81811145510836,25.0
99,58.64938080495355,25.0
100,57.686726006191954,25.0
101,55.61145510835913,25.0
102,62.91118421052631,25.0
103,61.0874613003096,25.0
104,60.23606811145511,25.0
105,58.509094427244584,25.0
106,58.407507739938076,25.0
107,55.954914860681114,25.0
108,62.98374613003096,25.0
109,58.71710526315789,25.0
110,59.51528637770898,25.0
111,57.952786377708975,25.0
112,57.164280185758514,25.0
113,61.634094427244584,25.0
114,52.45259287925696,25.0
115,55.829140866873075,25.0
116,59.12828947368421,25.0
117,56.506385448916404,25.0
118,56.462848297213625,25.0
119,54.91969814241486,25.0
120,56.670859133126946,25.0
121,57.81733746130032,25.0
122,54.276315789473685,25.0
123,58.107585139318886,25.0
124,58.54295665634675,25.0
125,56.07101393188856,25.0
126,56.06617647058823,25.0
127,53.45394736842105,25.0
128,55.00677244582044,25.0
129,54.13119195046439,25.0
130,57.13525541795666,25.0
131,58.81869195046439,25.0
132,55.316369969040245,25.0
133,62.37906346749225,25.0
134,59.099264705882355,25.0
135,56.28386222910217,25.0
136,55.72271671826625,25.0
137,60.4295665634675,25.0
138,57.17879256965943,25.0
139,55.69369195046439,25.0
140,58.8719040247678,25.0
141,57.338428792569665,25.0
142,61.31482198142415,25.0
143,61.60506965944272,25.0
144,58.88157894736842,25.0
145,55.872678018575854,25.0
146,57.99632352941177,25.0
147,54.72136222910217,25.0
148,60.77302631578947,25.0
149,58.87674148606811,25.0
150,61.213235294117645,25.0
151,56.806308049535616,25.0
152,62.06462848297213,25.0
153,59.96517027863777,25.0
154,59.466911764705884,25.0
155,58.373645510835914,25.0
156,56.9030572755418,25.0
157,54.13602941176471,25.0
158,61.38738390092879,25.0
159,58.99284055727555,25.0
160,57.261029411764696,25.0
161,59.8345588235294,25.0
162,57.31907894736841,25.0
163,59.108939628482965,25.0
164,58.70259287925697,25.0
165,60.627902476780186,25.0
166,55.99845201238389,25.0
167,56.31772445820434,25.0
168,54.72136222910217,25.0
169,57.94311145510836,25.0
170,57.265866873065015,25.0
171,57.681888544891635,25.0
172,61.67279411764706,25.0
173,60.36667956656347,25.0
174,61.36803405572756,25.0
175,59.302438080495364,25.0
176,59.578173374613,25.0
177,56.30321207430342,25.0
178,59.63138544891642,25.0
179,53.59423374613003,25.0
180,55.335719814241486,25.0
181,54.42627708978329,25.0
182,60.71981424148606,25.0
183,59.24922600619195,25.0
184,59.38467492260063,25.0
185,59.68943498452013,25.0
186,56.20646284829721,25.0
187,58.402670278637764,25.0
188,53.453947368421055,25.0
189,63.414280185758514,25.0
190,56.93691950464396,25.0
191,59.51044891640866,25.0
192,59.849071207430335,25.0
193,59.800696594427244,25.0
194,57.74477554179567,25.0
195,56.071013931888544,25.0
196,63.20626934984521,25.0
197,57.21265479876162,25.0
198,60.23606811145511,25.0
199,58.441369969040245,25.0
200,56.06133900928792,25.0
201,61.53734520123838,25.0
202,56.17260061919505,25.0
203,59.37500000000001,25.0
204,60.642414860681114,25.0
205,59.35081269349845,25.0
206,58.87190402476781,25.0
207,55.48084365325077,25.0
208,54.174729102167184,25.0
209,55.2921826625387,25.0
210,53.96188080495356,25.0
211,58.51393188854489,25.0
212,61.81308049535604,25.0
213,54.44078947368421,25.0
214,59.379837461300305,25.0
215,57.67705108359132,25.0
216,61.79373065015479,25.0
217,60.265092879256976,25.0
218,61.392221362229094,25.0
219,56.733746130030966,25.0
220,57.18846749226005,25.0
221,57.92859907120743,25.0
222,53.52650928792569,25.0
223,56.748258513931894,25.0
224,56.32739938080496,25.0
225,59.25406346749226,25.0
226,55.91621517027864,25.0
227,56.172600619195045,25.0
228,59.70878482972136,25.0
229,57.74961300309597,25.0
230,58.842879256965944,25.0
231,63.55940402476781,25.0
232,58.13177244582044,25.0
233,57.92376160990712,25.0
234,57.92859907120743,25.0
235,61.11164860681114,25.0
236,60.80688854489163,25.0
237,58.24787151702786,25.0
238,59.29276315789473,25.0
239,59.38467492260061,25.0
240,57.82701238390092,25.0
241,58.625193498452006,25.0
242,58.02051083591331,25.0
243,61.70181888544891,25.0
244,60.54082817337462,25.0
245,58.63970588235294,25.0
246,62.809597523219814,25.0
247,56.23548761609908,25.0
248,58.80417956656348,25.0
249,59.01702786377708,25.0
250,57.02399380804954,25.0
251,56.68053405572755,25.0
252,56.62732198142416,25.0
253,59.05089009287927,25.0
254,58.86222910216719,25.0
255,57.875386996904034,25.0
256,60.1296439628483,25.0
257,57.60448916408669,25.0
258,60.5892027863777,25.0
259,58.33978328173375,25.0
260,57.22232972136222,25.0
261,59.0702399380805,25.0
262,59.89744582043343,25.0
263,61.07778637770897,25.0
264,57.686726006191954,25.0
265,55.92105263157895,25.0
266,59.59752321981424,25.0
267,62.97890866873066,25.0
268,55.882352941176464,25.0
269,58.330108359133135,25.0
270,57.84152476780185,25.0
271,55.41795665634676,25.0
272,60.613390092879264,25.0
273,56.796633126934985,25.0
274,57.37229102167183,25.0
275,59.07991486068111,25.0
276,58.4171826625387,25.0
277,57.570626934984524,25.0
278,57.36745356037152,25.0
279,67.937306501548,25.0
280,58.83804179566563,25.0
281,59.18633900928793,25.0
282,59.62171052631579,25.0
283,58.79934210526315,25.0
284,57.00948142414862,25.0
285,63.58359133126935,25.0
286,56.438660990712066,25.0
287,55.52921826625385,25.0
288,54.80843653250775,25.0
289,59.75715944272446,25.0
290,58.50909442724458,25.0
291,56.58862229102167,25.0
292,51.804373065015476,25.0
293,59.33630030959752,25.0
294,55.86784055727554,25.0
295,62.20007739938081,25.0
296,59.15731424148606,25.0
297,59.7765092879257,25.0
298,58.035023219814235,25.0
299,58.925116099071204,25.0
300,56.52573529411765,25.0
301,60.153831269349844,25.0
302,54.51335139318885,25.0
303,54.95839783281734,25.0
304,58.218846749226,25.0
305,59.30243808049535,25.0
306,51.88660990712074,25.0
307,58.1172600619195,25.0
308,60.51664086687306,25.0
309,54.90034829721362,25.0
310,59.44272445820433,25.0
311,56.56443498452012,25.0
312,57.49322755417956,25.0
313,58.54295665634675,25.0
314,56.99980650154799,25.0
315,56.72407120743034,25.0
316,57.004643962848306,25.0
317,58.98800309597524,25.0
318,61.580882352941174,25.0
319,55.359907120743046,25.0
320,55.32120743034055,25.0
321,53.16369969040247,25.0
322,54.45046439628484,25.0
323,56.36609907120743,25.0
324,57.45936532507739,25.0
325,57.0578560371517,25.0
326,60.86010061919504,25.0
327,54.764899380804955,25.0
328,59.37016253869969,25.0
329,58.431695046439636,25.0
330,58.53328173374613,25.0
331,59.73297213622292,25.0
332,56.58862229102167,25.0
333,59.11861455108359,25.0
334,55.853328173374614,25.0
335,58.39299535603715,25.0
336,59.07991486068111,25.0
337,62.519349845201226,25.0
338,59.75232198142415,25.0
339,57.57546439628483,25.0
340,56.73858359133126,25.0
341,55.214783281733745,25.0
342,54.97774767801858,25.0
343,62.65479876160992,25.0
344,57.22232972136222,25.0
345,58.86222910216718,25.0
346,57.45936532507739,25.0
347,56.97561919504644,25.0
348,53.58455882352942,25.0
349,57.39647832817337,25.0
350,55.388931888544896,25.0
351,58.10758513931888,25.0
352,57.415828173374614,25.0
353,56.830495356037154,25.0
354,56.1000386996904,25.0
355,57.88022445820434,25.0
356,56.24999999999999,25.0
357,58.97832817337461,25.0
358,59.2685758513932,25.0
359,56.008126934984524,25.0
360,60.44407894736842,25.0
361,61.35835913312694,25.0
362,60.65692724458205,25.0
363,59.234713622291025,25.0
364,54.9390479876161,25.0
365,61.69698142414862,25.0
366,54.69233746130031,25.0
367,56.94175696594428,25.0
368,63.419117647058826,25.0
369,58.910603715170275,25.0
370,59.81037151702787,25.0
371,55.12287151702787,25.0
372,57.381965944272444,25.0
373,53.32333591331269,25.0
374,56.78695820433436,25.0
375,57.406153250774,25.0
376,56.22097523219814,25.0
377,56.57894736842105,25.0
378,61.213235294117645,25.0
379,58.92995356037153,25.0
380,62.379063467492266,25.0
381,57.710913312693506,25.0
382,61.09713622291022,25.0
383,58.779992260061924,25.0
384,60.294117647058826,25.0
385,59.587848297213625,25.0
386,61.585719814241486,25.0
387,56.02263931888545,25.0
388,58.33494582043343,25.0
389,55.97426470588235,25.0
390,56.53057275541795,25.0
391,53.91350619195046,25.0
392,61.50832043343653,25.0
393,59.26373839009289,25.0
394,56.63215944272446,25.0
395,56.63215944272446,25.0
396,56.20162538699691,25.0
397,61.00522445820434,25.0
398,57.42066563467492,25.0
399,57.33842879256965,25.0
400,60.550503095975216,25.0
401,60.59404024767803,25.0
402,60.80205108359134,25.0
403,56.327399380804955,25.0
404,56.73858359133127,25.0
405,57.98664860681115,25.0
406,57.78831269349845,25.0
407,61.91466718266255,25.0
408,60.5359907120743,25.0
409,54.45530185758515,25.0
410,60.729489164086694,25.0
411,58.17047213622292,25.0
412,58.82836687306501,25.0
413,59.67976006191951,25.0
414,61.99690402476781,25.0
415,59.41369969040247,25.0
416,63.51102941176472,25.0
417,56.09036377708978,25.0
418,56.67569659442725,25.0
419,55.45665634674922,25.0
420,50.89493034055728,25.0
421,63.883513931888544,25.0
422,57.88506191950464,25.0
423,58.504256965944265,25.0
424,56.87403250773994,25.0
425,57.69640092879257,25.0
426,59.3701625386997,25.0
427,61.99690402476781,25.0
428,60.695626934984524,25.0
429,60.16834365325078,25.0
430,59.72813467492259,25.0
431,62.00657894736843,25.0
432,57.4593653250774,25.0
433,59.452399380804955,25.0
434,60.303792569659436,25.0
435,58.38815789473683,25.0
436,56.946594427244584,25.0
437,61.46478328173375,25.0
438,56.404798761609904,25.0
439,61.634094427244584,25.0
440,60.115131578947356,25.0
441,53.72968266253869,25.0
442,57.23684210526316,25.0
443,59.44756191950464,25.0
444,57.35294117647059,25.0
445,62.16621517027864,25.0
446,60.119969040247675,25.0
447,58.325270897832816,25.0
448,56.46768575851394,25.0
449,53.71033281733746,25.0
450,55.403444272445824,25.0
451,57.73026315789474,25.0
452,56.49187306501548,25.0
453,59.786184210526315,25.0
454,65.11222910216719,25.0
455,56.51606037151703,25.0
456,57.42066563467492,25.0
457,55.87751547987616,25.0
458,60.1296439628483,25.0
459,56.525735294117645,25.0
460,60.13931888544892,25.0
461,62.89667182662538,25.0
462,54.87132352941177,25.0
463,55.03095975232198,25.0
464,58.20433436532509,25.0
465,60.23606811145511,25.0
466,59.86842105263159,25.0
467,59.03154024767802,25.0
468,55.006772445820424,25.0
469,60.19736842105263,25.0
470,59.26857585139319,25.0
471,58.03502321981425,25.0
472,60.37635448916408,25.0
473,58.591331269349844,25.0
474,57.406153250774004,25.0
475,56.56443498452012,25.0
476,59.16215170278638,25.0
477,58.373645510835914,25.0
478,59.81037151702786,25.0
479,55.606617647058826,25.0
480,59.38951238390092,25.0
481,58.26722136222911,25.0
482,57.29489164086687,25.0
483,56.28386222910216,25.0
484,60.19736842105264,25.0
485,63.390092879256976,25.0
486,61.900154798761605,25.0
487,53.381385448916404,25.0
488,57.082043343653254,25.0
489,57.94794891640866,25.0
490,54.624613003095966,25.0
491,56.51606037151703,25.0
492,56.52089783281735,25.0
493,58.475232198142415,25.0
494,56.44349845201238,25.0
495,60.31346749226006,25.0
496,59.51044891640867,25.0
497,59.2250386996904,25.0
498,57.94311145510836,25.0
499,57.55611455108359,25.0
500,57.96729876160991,25.0
501,59.76199690402476,25.0
502,58.14628482972137,25.0
503,58.60100619195047,25.0
504,56.53057275541796,25.0
505,57.062693498452006,25.0
506,59.72329721362229,25.0
507,60.91331269349844,25.0
508,57.44969040247678,25.0
509,52.70897832817337,25.0
510,55.99845201238389,25.0
511,52.713815789473685,25.0
512,56.93208204334365,25.0
513,55.790441176470594,25.0
514,57.89957430340558,25.0
515,56.73858359133127,25.0
516,58.07372291021672,25.0
517,54.8858359133127,25.0
518,57.73510061919505,25.0
519,60.19253095975233,25.0
520,57.49322755417956,25.0
521,58.765479876160995,25.0
522,56.143575851393194,25.0
523,57.27554179566564,25.0
524,58.296246130030966,25.0
525,61.000386996904034,25.0
526,58.189821981424146,25.0
527,58.339783281733745,25.0
528,57.61416408668731,25.0
529,61.35352167182663,25.0
530,55.62113003095974,25.0
531,57.84636222910217,25.0
532,57.498065015479874,25.0
533,56.78212074303405,25.0
534,58.31559597523219,25.0
535,55.471168730650156,25.0
536,57.32875386996904,25.0
537,59.56366099071207,25.0
538,60.47310371517028,25.0
539,60.057082043343655,25.0
540,58.891253869969034,25.0
541,58.85255417956655,25.0
542,57.599651702786375,25.0
543,55.35990712074302,25.0
544,61.76954334365325,25.0
545,55.85332817337462,25.0
546,52.23490712074303,25.0
547,58.422020123839005,25.0
548,57.807662538699695,25.0
549,60.550503095975216,25.0
550,60.69562693498451,25.0
551,60.33765479876162,25.0
552,59.91679566563467,25.0
553,56.36126160990712,25.0
554,60.56017801857585,25.0
555,56.76760835913313,25.0
556,54.629450464396285,25.0
557,64.13022445820434,25.0
558,59.04605263157894,25.0
559,59.45239938080495,25.0
560,60.153831269349844,25.0
561,58.21400928792569,25.0
562,60.62306501547988,25.0
563,63.50619195046441,25.0
564,60.47310371517028,25.0
565,57.9189241486068,25.0
566,54.74071207430342,25.0
567,58.833204334365334,25.0
568,62.29198916408668,25.0
569,56.153250773993804,25.0
570,61.493808049535616,25.0
571,61.73568111455108,25.0
572,57.12074303405572,25.0
573,59.50077399380806,25.0
574,62.79508513931887,25.0
575,60.40054179566564,25.0
576,56.39512383900929,25.0
577,58.683243034055735,25.0
578,55.39860681114551,25.0
579,60.26993034055728,25.0
580,58.45104489164086,25.0
581,57.56578947368422,25.0
582,61.47929566563468,25.0
583,59.6313854489164,25.0
584,61.10197368421053,25.0
585,56.9030572755418,25.0
586,56.07585139318886,25.0
587,58.10274767801858,25.0
588,63.90770123839008,25.0
589,58.78482972136223,25.0
590,54.561726006191954,25.0
591,62.016253869969034,25.0
592,56.453173374613,25.0
593,53.70065789473684,25.0
594,57.40615325077399,25.0
595,60.9858746130031,25.0
596,57.88022445820434,25.0
597,58.547794117647065,25.0
598,57.72542569659443,25.0
599,54.21826625386997,25.0
600,54.8858359133127,25.0
601,54.45530185758514,25.0
602,57.086880804953566,25.0
603,58.95897832817337,25.0
604,56.25483746130031,25.0
605,56.545085139318886,25.0
606,56.50638544891641,25.0
607,58.70743034055727,25.0
608,58.3639705882353,25.0
609,57.73026315789475,25.0
610,57.856037151702786,25.0
611,60.071594427244584,25.0
612,60.003869969040245,25.0
613,60.71497678018576,25.0
614,54.47465170278638,25.0
615,59.76199690402477,25.0
616,57.38196594427245,25.0
617,58.77515479876162,25.0
618,59.85874613003096,25.0
619,61.43092105263158,25.0
620,53.79740712074303,25.0
621,55.3986068111455,25.0
622,59.75715944272446,25.0
623,56.104876160990706,25.0
624,56.36609907120743,25.0
625,58.91060371517027,25.0
626,57.338428792569665,25.0
627,59.60236068111455,25.0
628,52.70897832817338,25.0
629,59.59752321981424,25.0
630,61.70181888544892,25.0
631,54.85681114551083,25.0
632,54.30050309597523,25.0
633,60.139318885448915,25.0
634,55.71304179566564,25.0
635,59.89260835913312,25.0
636,60.182856037151694,25.0
637,55.180921052631575,25.0
638,62.87732198142414,25.0
639,58.76547987616099,25.0
640,53.3765479876161,25.0
641,59.49109907120743,25.0
642,58.2140092879257,25.0
643,53.75386996904025,25.0
644,58.659055727554176,25.0
645,61.774380804953566,25.0
646,61.440595975232206,25.0
647,60.01838235294118,25.0
648,56.97561919504645,25.0
649,53.134674922600624,25.0
650,54.94872291021672,25.0
651,55.40828173374613,25.0
652,60.52631578947369,25.0
653,54.0344427244582,25.0
654,62.94504643962848,25.0
655,56.92724458204334,25.0
656,60.71981424148606,25.0
657,56.4483359133127,25.0
658,67.16331269349844,25.0
659,57.575464396284836,25.0
660,55.83881578947368,25.0
661,50.93846749226006,25.0
662,57.57062693498451,25.0
663,59.96517027863777,25.0
664,57.85603715170278,25.0
665,58.02534829721362,25.0
666,57.082043343653254,25.0
667,61.69698142414859,25.0
668,60.98587461300309,25.0
669,54.30534055727554,25.0
670,58.30592105263158,25.0
671,55.04547213622291,25.0
672,57.02883126934984,25.0
673,55.38893188854488,25.0
674,58.44620743034055,25.0
675,60.734326625387,25.0
676,55.016447368421055,25.0
677,60.632739938080505,25.0
678,56.037151702786375,25.0
679,58.20433436532507,25.0
680,58.94930340557276,25.0
681,55.8484907120743,25.0
682,56.999806501547994,25.0
683,59.48626160990712,25.0
684,60.342492260061924,25.0
685,54.00058049535603,25.0
686,59.39434984520125,25.0
687,52.78637770897833,25.0
688,62.296826625386984,25.0
689,59.43304953560373,25.0
690,61.45994582043343,25.0
691,55.92105263157894,25.0
692,60.008707430340564,25.0
693,60.04256965944273,25.0
694,52.82023993808049,25.0
695,54.861648606811144,25.0
696,63.2546439628483,25.0
697,58.03018575851394,25.0
698,57.952786377708975,25.0
699,57.67705108359134,25.0
700,56.1484133126935,25.0
701,61.16486068111455,25.0
702,61.571207430340564,25.0
703,56.3999613003096,25.0
704,58.779992260061924,25.0
705,57.23200464396285,25.0
706,55.31153250773994,25.0
707,59.85874613003095,25.0
708,60.2312306501548,25.0
709,59.196013931888544,25.0
710,62.8531346749226,25.0
711,59.24922600619195,25.0
712,53.807082043343655,25.0
713,58.29140866873065,25.0
714,58.57198142414861,25.0
715,56.9078947368421,25.0
716,57.836687306501545,25.0
717,56.927244582043336,25.0
718,54.77457430340558,25.0
719,58.697755417956664,25.0
720,56.32739938080496,25.0
721,60.173181114551085,25.0
722,60.26509287925696,25.0
723,54.924535603715164,25.0
724,56.9611068111455,25.0
725,55.47600619195046,25.0
726,55.364744582043336,25.0
727,57.83668730650155,25.0
728,55.6936919504644,25.0
729,56.153250773993804,25.0
730,57.6141640866873,25.0
731,54.174729102167184,25.0
732,57.15460526315788,25.0
733,55.567917956656345,25.0
734,58.84287925696595,25.0
735,55.471168730650156,25.0
736,53.574883900928796,25.0
737,57.29005417956656,25.0
738,55.58243034055727,25.0
739,58.81385448916408,25.0
740,55.34539473684211,25.0
741,56.65150928792569,25.0
742,54.76973684210527,25.0
743,59.43788699690403,25.0
744,59.47174922600619,25.0
745,57.62867647058823,25.0
746,55.098684210526315,25.0
747,56.10487616099072,25.0
748,58.726780185758514,25.0
749,56.999806501547994,25.0
750,62.20007739938081,25.0
751,58.18014705882353,25.0
752,56.767608359133135,25.0
753,54.256965944272444,25.0
754,57.60448916408669,25.0
755,58.789667182662534,25.0
756,55.57759287925697,25.0
757,55.63564241486068,25.0
758,56.97078173374612,25.0
759,58.78482972136223,25.0
760,55.14222136222911,25.0
761,54.450464396284836,25.0
762,57.58997678018576,25.0
763,58.19949690402477,25.0
764,58.67840557275542,25.0
765,61.484133126934985,25.0
766,56.1967879256966,25.0
767,54.94388544891642,25.0
768,62.91118421052631,25.0
769,55.70336687306502,25.0
770,55.22445820433437,25.0
771,53.98123065015481,25.0
772,55.79044117647059,25.0
773,57.79798761609908,25.0
774,55.05998452012384,25.0
775,60.85526315789473,25.0
776,57.81733746130032,25.0
777,62.17589009287925,25.0
778,59.23955108359133,25.0
779,55.350232198142415,25.0
780,55.02128482972136,25.0
781,57.61416408668731,25.0
782,58.397832817337466,25.0
783,58.13177244582043,25.0
784,61.50832043343653,25.0
785,60.0328947368421,25.0
786,58.7219427244582,25.0
787,56.78212074303405,25.0
788,55.171246130030966,25.0
789,57.69156346749225,25.0
790,61.919504643962846,25.0
791,56.196787925696604,25.0
792,57.609326625387,25.0
793,62.51451238390093,25.0
794,57.79798761609908,25.0
795,61.46962074303404,25.0
796,55.95491486068112,25.0
797,56.01780185758514,25.0
798,59.15247678018575,25.0
799,60.77786377708978,25.0
800,56.903057275541805,25.0
801,58.18498452012384,25.0
802,52.747678018575854,25.0
803,54.377902476780186,25.0
804,56.06617647058823,25.0
805,56.33707430340558,25.0
806,62.66931114551083,25.0
807,54.81327399380805,25.0
808,55.94523993808049,25.0
809,57.619001547987615,25.0
810,62.67414860681114,25.0
811,60.105456656346746,25.0
812,58.02051083591332,25.0
813,60.110294117647065,25.0
814,60.58920278637771,25.0
815,56.2451625386997,25.0
816,60.453753869969034,25.0
817,59.77650928792571,25.0
818,58.49458204334366,25.0
819,53.86513157894737,25.0
820,59.92163312693499,25.0
821,57.17395510835914,25.0
822,55.63564241486068,25.0
823,57.50290247678019,25.0
824,58.04953560371517,25.0
825,55.016447368421055,25.0
826,60.81172600619195,25.0
827,56.97078173374614,25.0
828,57.40131578947368,25.0
829,57.58030185758515,25.0
830,58.8719040247678,25.0
831,56.932082043343655,25.0
832,57.6141640866873,25.0
833,55.00677244582044,25.0
834,53.792569659442734,25.0
835,56.506385448916404,25.0
836,59.76199690402478,25.0
837,60.32797987616098,25.0
838,59.152476780185765,25.0
839,60.236068111455126,25.0
840,53.7296826625387,25.0
841,59.96517027863777,25.0
842,58.610681114551085,25.0
843,55.81946594427244,25.0
844,57.836687306501545,25.0
845,59.47174922600619,25.0
846,55.5437306501548,25.0
847,59.86842105263158,25.0
848,52.97020123839008,25.0
849,60.83107585139319,25.0
850,60.74883900928794,25.0
851,63.47232972136224,25.0
852,61.15034829721361,25.0
853,51.81404798761609,25.0
854,58.86706656346748,25.0
855,59.69910990712074,25.0
856,63.62712848297215,25.0
857,53.20723684210526,25.0
858,56.012964396284836,25.0
859,58.557469040247675,25.0
860,60.71497678018576,25.0
861,53.95704334365325,25.0
862,59.83455882352942,25.0
863,63.98510061919505,25.0
864,61.32449690402477,25.0
865,61.4454334365325,25.0
866,51.741486068111456,25.0
867,52.65092879256965,25.0
868,58.262383900928796,25.0
869,56.27902476780186,25.0
870,56.83049535603716,25.0
871,61.817917956656345,25.0
872,56.22581269349845,25.0
873,57.37229102167182,25.0
874,55.4953560371517,25.0
875,60.52631578947368,25.0
876,57.65770123839008,25.0
877,59.31695046439628,25.0
878,55.52921826625387,25.0
879,55.83397832817337,25.0
880,60.289280185758514,25.0
881,62.00174148606811,25.0
882,58.49941950464396,25.0
883,55.66950464396285,25.0
884,58.68808049535603,25.0
885,63.09984520123841,25.0
886,58.9202786377709,25.0
887,63.11435758513932,25.0
888,57.87538699690402,25.0
889,58.92995356037152,25.0
890,63.54489164086689,25.0
891,53.17821207430342,25.0
892,59.71362229102167,25.0
893,58.775154798761605,25.0
894,56.74342105263159,25.0
895,59.89744582043344,25.0
896,56.6515092879257,25.0
897,61.98239164086687,25.0
898,57.1062306501548,25.0
899,58.189821981424146,25.0
900,63.20143188854489,25.0
901,62.21942724458205,25.0
902,51.199690402476776,25.0
903,52.90731424148607,25.0
904,59.63138544891641,25.0
905,56.757933436532504,25.0
906,59.65073529411765,25.0
907,54.28115325077399,25.0
908,56.26934984520124,25.0
909,57.522252321981426,25.0
910,58.94446594427245,25.0
911,60.14899380804953,25.0
912,57.609326625387006,25.0
913,57.11106811145511,25.0
914,55.7469040247678,25.0
915,60.434404024767794,25.0
916,61.7453560371517,25.0
917,61.15518575851392,25.0
918,60.9375,25.0
919,59.13796439628483,25.0
920,62.46130030959751,25.0
921,63.00309597523219,25.0
922,55.38893188854488,25.0
923,55.88235294117647,25.0
924,54.98258513931888,25.0
925,62.10332817337462,25.0
926,56.54508513931888,25.0
927,53.97155572755418,25.0
928,59.63138544891641,25.0
929,58.34945820433437,25.0
930,58.954140866873054,25.0
931,56.932082043343655,25.0
932,58.05921052631578,25.0
933,56.36609907120743,25.0
934,63.13370743034055,25.0
935,59.37016253869969,25.0
936,59.42821207430341,25.0
937,57.178792569659436,25.0
938,58.45588235294117,25.0
939,61.96304179566564,25.0
940,55.713041795665646,25.0
941,53.71517027863777,25.0
942,59.59752321981425,25.0
943,58.015673374613,25.0
944,58.22852167182663,25.0
945,59.04121517027864,25.0
946,58.42202012383901,25.0
947,59.93614551083591,25.0
948,56.946594427244584,25.0
949,60.342492260061924,25.0
950,60.729489164086694,25.0
951,58.489744582043336,25.0
952,58.81385448916408,25.0
953,59.970007739938076,25.0
954,58.910603715170275,25.0
955,60.487616099071204,25.0
956,51.2625773993808,25.0
957,58.16563467492261,25.0
958,63.59810371517028,25.0
959,56.60313467492261,25.0
960,55.11319659442725,25.0
961,58.23819659442724,25.0
962,54.06346749226007,25.0
963,59.766834365325074,25.0
964,58.92027863777089,25.0
965,57.1062306501548,25.0
966,58.189821981424146,25.0
967,61.86145510835913,25.0
968,57.870549535603715,25.0
969,56.21130030959753,25.0
970,57.25619195046439,25.0
971,58.155959752321984,25.0
972,55.476006191950454,25.0
973,57.754450464396285,25.0
974,57.633513931888544,25.0
975,55.17608359133128,25.0
976,54.83262383900929,25.0
977,55.08417182662539,25.0
978,55.97426470588236,25.0
979,59.10893962848297,25.0
980,59.74264705882352,25.0
981,57.130417956656345,25.0
982,58.89609133126935,25.0
983,57.067530959752325,25.0
984,60.7875386996904,25.0
985,59.02670278637771,25.0
986,60.656927244582036,25.0
987,55.6985294117647,25.0
988,59.75715944272446,25.0
989,60.89396284829722,25.0
990,55.90654024767803,25.0
991,55.079334365325074,25.0
992,55.38893188854489,25.0
993,58.349458204334354,25.0
994,58.58649380804953,25.0
995,59.95065789473683,25.0
996,52.99438854489164,25.0
997,59.85874613003096,25.0
998,54.89067337461301,25.0
999,60.366679566563455,25.0
1000,59.781346749226,25.0
1001,60.98103715170279,25.0
1002,62.33552631578949,25.0
1003,59.433049535603715,25.0
1004,59.55882352941177,25.0
1005,58.010835913312704,25.0
1006,57.45936532507739,25.0
1007,53.44910990712074,25.0
1008,61.42608359133126,25.0
1009,56.66118421052631,25.0
1010,57.140092879256976,25.0
1011,58.60584365325077,25.0
1012,53.303986068111456,25.0
1013,60.26993034055728,25.0
1014,58.77999226006193,25.0
1015,53.09113777089784,25.0
1016,61.83243034055728,25.0
1017,58.04953560371517,25.0
1018,59.283088235294116,25.0
1019,57.60932662538699,25.0
1020,56.482198142414866,25.0
1021,59.36048761609907,25.0
1022,55.95491486068111,25.0
1023,56.322561919504636,25.0
1024,57.27554179566564,25.0
1025,59.53947368421053,25.0
1026,61.547020123839005,25.0
1027,54.731037151702786,25.0
1028,57.69640092879257,25.0
1029,62.19040247678017,25.0
1030,55.877515479876166,25.0
1031,59.94582043343652,25.0
1032,59.771671826625386,25.0
1033,62.132352941176485,25.0
1034,59.553986068111456,25.0
1035,56.491873065015476,25.0
1036,57.657701238390096,25.0
1037,59.86358359133128,25.0
1038,57.754450464396285,25.0
1039,57.43517801857585,25.0
1040,56.18227554179567,25.0
1041,61.440595975232206,25.0
1042,57.69156346749227,25.0
1043,54.102167182662534,25.0
1044,59.5733359133127,25.0
1045,59.33146284829722,25.0
1046,55.63564241486068,25.0
1047,60.613390092879264,25.0
1048,59.433049535603715,25.0
1049,61.30998452012385,25.0
1050,59.83939628482972,25.0
1051,59.62654798761611,25.0
1052,53.492647058823536,25.0
1053,56.36126160990712,25.0
1054,54.94872291021672,25.0
1055,63.346555727554176,25.0
1056,57.5077399380805,25.0
1057,62.93053405572755,25.0
1058,54.421439628482986,25.0
1059,62.82410990712075,25.0
1060,58.95414086687306,25.0
1061,55.775928792569665,25.0
1062,54.07797987616099,25.0
1063,56.46284829721362,25.0
1064,59.00735294117647,25.0
1065,60.947174922600624,25.0
1066,62.88215944272447,25.0
1067,57.149767801857585,25.0
1068,58.842879256965944,25.0
1069,59.336300309597526,25.0
1070,57.23684210526316,25.0
1071,56.35158668730651,25.0
1072,59.815208978328165,25.0
1073,57.35294117647059,25.0
1074,58.9202786377709,25.0
1075,58.659055727554176,25.0
1076,58.40267027863777,25.0
1077,55.68401702786377,25.0
1078,58.639705882352935,25.0
1079,60.49245356037152,25.0
1080,60.018382352941174,25.0
1081,59.00735294117647,25.0
1082,61.63893188854489,25.0
1083,56.97561919504644,25.0
1084,59.703947368421055,25.0
1085,64.45433436532505,25.0
1086,57.39647832817337,25.0
1087,56.49671052631579,25.0
1088,59.09442724458204,25.0
1089,57.84636222910216,25.0
1090,55.2921826625387,25.0
1091,57.49322755417956,25.0
1092,61.09713622291021,25.0
1093,57.95762383900928,25.0
1094,57.61416408668731,25.0
1095,57.09171826625386,25.0
1096,57.22232972136222,25.0
1097,57.61416408668731,25.0
1098,57.12074303405573,25.0
1099,57.45452786377709,25.0
1100,56.57410990712074,25.0
1101,61.78889318885449,25.0
1102,56.341911764705884,25.0
1103,58.020510835913306,25.0
1104,57.94794891640867,25.0
1105,58.26238390092879,25.0
1106,56.6079721362229,25.0
1107,52.73800309597524,25.0
1108,58.015673374612994,25.0
1109,60.758513931888544,25.0
1110,55.166408668730654,25.0
1111,58.102747678018574,25.0
1112,58.639705882352935,25.0
1113,57.609326625387,25.0
1114,55.935565015479874,25.0
1115,54.576238390092875,25.0
1116,58.24303405572755,25.0
1117,54.8858359133127,25.0
1118,60.221555727554176,25.0
1119,56.58862229102167,25.0
1120,56.65634674922601,25.0
1121,61.634094427244584,25.0
1122,66.10874613003094,25.0
1123,57.227167182662534,25.0
1124,58.48006965944273,25.0
1125,55.66466718266254,25.0
1126,59.16215170278638,25.0
1127,58.620356037151694,25.0
1128,56.225812693498455,25.0
1129,59.379837461300305,25.0
1130,56.66602167182663,25.0
1131,64.04798761609906,25.0
1132,57.086880804953566,25.0
1133,56.92240712074303,25.0
1134,58.35913312693499,25.0
1135,55.480843653250766,25.0
1136,59.01702786377708,25.0
1137,56.240325077399376,25.0
1138,59.37016253869969,25.0
1139,55.993614551083596,25.0
1140,58.54295665634674,25.0
1141,54.75038699690401,25.0
1142,60.095781733746136,25.0
1143,57.149767801857585,25.0
1144,57.24167956656346,25.0
1145,57.65770123839008,25.0
1146,53.58939628482971,25.0
1147,54.70201238390092,25.0
1148,57.02399380804954,25.0
1149,56.482198142414866,25.0
1150,54.93904798761611,25.0
1151,53.71517027863777,25.0
1152,59.32662538699691,25.0
1153,61.18421052631578,25.0
1154,59.447561919504636,25.0
1155,57.16911764705883,25.0
1156,56.60797213622291,25.0
1157,58.76064241486068,25.0
1158,56.00328947368421,25.0
1159,56.48219814241486,25.0
1160,54.62461300309597,25.0
1161,55.258320433436545,25.0
1162,62.10332817337462,25.0
1163,56.675696594427244,25.0
1164,55.906540247678016,25.0
1165,59.92163312693498,25.0
1166,61.0874613003096,25.0
1167,55.90654024767802,25.0
1168,57.2561919504644,25.0
1169,58.40267027863778,25.0
1170,54.547213622291025,25.0
1171,53.10565015479875,25.0
1172,57.02883126934984,25.0
1173,58.3639705882353,25.0
1174,61.11648606811144,25.0
1175,50.78850619195046,25.0
1176,56.08552631578947,25.0
1177,56.622484520123834,25.0
1178,60.845588235294116,25.0
1179,52.1139705882353,25.0
1180,60.81656346749225,25.0
1181,61.25193498452012,25.0
1182,60.23606811145511,25.0
1183,57.81250000000001,25.0
1184,58.76547987616099,25.0
1185,59.713622291021665,25.0
1186,59.94098297213623,25.0
1187,55.23897058823528,25.0
1188,58.99284055727555,25.0
1189,54.94388544891641,25.0
1190,60.41505417956655,25.0
1191,55.71304179566564,25.0
1192,57.633513931888544,25.0
1193,58.039860681114554,25.0
1194,54.74554953560371,25.0
1195,58.38332043343652,25.0
1196,57.73026315789474,25.0
1197,58.79934210526316,25.0
1198,62.81443498452012,25.0
1199,58.218846749225996,25.0
1200,59.25406346749226,25.0
1201,61.532507739938076,25.0
1202,59.849071207430335,25.0
1203,59.55398606811146,25.0
1204,55.437306501547994,25.0
1205,54.96323529411764,25.0
1206,56.54992260061919,25.0
1207,58.0640479876161,25.0
1208,60.81172600619196,25.0
1209,58.359133126934985,25.0
1210,56.661184210526315,25.0
1211,54.20859133126935,25.0
1212,60.00870743034055,25.0
1213,58.431695046439636,25.0
1214,59.999032507739926,25.0
1215,57.39164086687306,25.0
1216,60.86977554179566,25.0
1217,58.968653250774004,25.0
1218,59.88777089783282,25.0
1219,58.794504643962846,25.0
1220,58.15595975232198,25.0
1221,59.54431114551084,25.0
1222,57.59481424148607,25.0
1223,52.89280185758514,25.0
1224,57.42550309597523,25.0
1225,57.02399380804954,25.0
1226,61.11648606811144,25.0
1227,60.00386996904025,25.0
1228,62.350038699690394,25.0
1229,58.06404798761611,25.0
1230,53.06695046439629,25.0
1231,62.03560371517027,25.0
1232,63.365905572755416,25.0
1233,62.26780185758515,25.0
1234,57.41582817337461,25.0
1235,55.78076625386996,25.0
1236,58.39299535603715,25.0
1237,60.6424148606811,25.0
1238,65.95878482972137,25.0
1239,55.95491486068112,25.0
1240,58.27205882352941,25.0
1241,58.794504643962846,25.0
1242,52.64125386996904,25.0
1243,58.33494582043344,25.0
1244,58.03502321981425,25.0
1245,57.028831269349844,25.0
1246,62.799922600619205,25.0
1247,59.0218653250774,25.0
1248,62.32585139318888,25.0
1249,60.274767801857585,25.0
1250,59.02186532507739,25.0
1251,56.64183436532508,25.0
1252,58.30108359133126,25.0
1253,63.00793343653251,25.0
1254,60.42956656346749,25.0
1255,59.55882352941177,25.0
1256,58.7171052631579,25.0
1257,57.21749226006192,25.0
1258,59.82004643962848,25.0
1259,60.1780185758514,25.0
1260,60.294117647058826,25.0
1261,57.99632352941177,25.0
1262,62.45646284829722,25.0
1263,56.79179566563467,25.0
1264,60.5843653250774,25.0
1265,56.651509287925705,25.0
1266,56.03231424148606,25.0
1267,57.706075851393194,25.0
1268,59.99903250773993,25.0
1269,59.25890092879257,25.0
1270,57.294891640866865,25.0
1271,61.96304179566564,25.0
1272,57.79315015479876,25.0
1273,62.4516253869969,25.0
1274,60.5359907120743,25.0
1275,57.05785603715171,25.0
1276,56.39028637770899,25.0
1277,55.79044117647059,25.0
1278,59.365325077399376,25.0
1279,57.178792569659436,25.0
1280,60.574690402476776,25.0
1281,56.73858359133127,25.0
1282,59.02186532507741,25.0
1283,59.30727554179567,25.0
1284,56.84017027863777,25.0
1285,56.994969040247675,25.0
1286,56.999806501547994,25.0
1287,59.89260835913312,25.0
1288,56.36126160990712,25.0
1289,58.5187693498452,25.0
1290,54.16021671826625,25.0
1291,58.75580495356038,25.0
1292,61.329334365325074,25.0
1293,60.734326625387,25.0
1294,55.5437306501548,25.0
1295,60.85526315789474,25.0
1296,59.72813467492261,25.0
1297,59.940982972136226,25.0
1298,56.99013157894736,25.0
1299,61.09229876160992,25.0
1300,59.16215170278638,25.0
1301,59.868421052631575,25.0
1302,62.38390092879257,25.0
1303,62.90150928792571,25.0
1304,53.37171052631579,25.0
1305,57.614164086687296,25.0
1306,59.766834365325074,25.0
1307,56.878869969040245,25.0
1308,55.05514705882353,25.0
1309,54.9390479876161,25.0
1310,57.88022445820434,25.0
1311,51.59636222910217,25.0
1312,57.449690402476776,25.0
1313,56.24032507739939,25.0
1314,56.57410990712075,25.0
1315,59.418537151702786,25.0
1316,55.77109133126935,25.0
1317,60.76335139318886,25.0
1318,57.512577399380824,25.0
1319,55.55340557275542,25.0
1320,57.69640092879256,25.0
1321,60.79721362229103,25.0
1322,61.222910216718276,25.0
1323,57.12558049535604,25.0
1324,58.39783281733745,25.0
1325,54.914860681114554,25.0
1326,54.99226006191951,25.0
1327,60.124806501547994,25.0
1328,56.23548761609908,25.0
1329,60.17801857585139,25.0
1330,57.473877708978335,25.0
1331,56.11938854489164,25.0
1332,57.31907894736842,25.0
1333,57.406153250774,25.0
1334,59.58784829721362,25.0
1335,55.52921826625387,25.0
1336,57.11106811145511,25.0
1337,57.40131578947368,25.0
1338,54.85681114551083,25.0
1339,62.77089783281734,25.0
1340,62.02109133126935,25.0
1341,56.13390092879257,25.0
1342,60.71981424148608,25.0
1343,57.56095201238391,25.0
1344,54.61493808049536,25.0
1345,60.071594427244584,25.0
1346,58.50425696594427,25.0
1347,56.65634674922601,25.0
1348,53.72968266253869,25.0
1349,60.16834365325078,25.0
1350,54.643962848297214,25.0
1351,56.14841331269349,25.0
1352,57.551277089783284,25.0
1353,53.357198142414866,25.0
1354,53.63777089783282,25.0
1355,55.72755417956655,25.0
1356,61.16486068111455,25.0
1357,60.79237616099073,25.0
1358,55.61145510835914,25.0
1359,55.83397832817337,25.0
1360,62.48065015479876,25.0
1361,59.37016253869969,25.0
1362,54.55688854489164,25.0
1363,57.56578947368421,25.0
1364,58.44620743034057,25.0
1365,57.2561919504644,25.0
1366,58.4171826625387,25.0
1367,55.84849071207431,25.0
1368,59.3266253869969,25.0
1369,59.384674922600624,25.0
1370,57.1594427244582,25.0
1371,57.14493034055727,25.0
1372,58.25270897832817,25.0
1373,56.19678792569659,25.0
1374,58.122097523219814,25.0
1375,58.122097523219814,25.0
1376,59.33630030959752,25.0
1377,59.012190402476776,25.0
1378,60.97136222910217,25.0
1379,54.82294891640866,25.0
1380,58.53328173374613,25.0
1381,61.47445820433436,25.0
1382,56.075851393188856,25.0
1383,58.721942724458195,25.0
1384,58.53811919504643,25.0
1385,53.55069659442724,25.0
1386,58.54295665634675,25.0
1387,60.424729102167184,25.0
1388,60.661764705882355,25.0
1389,55.263157894736835,25.0
1390,57.280379256965944,25.0
1391,58.99284055727554,25.0
1392,57.83184984520124,25.0
1393,54.74554953560372,25.0
1394,56.11938854489163,25.0
1395,61.19388544891641,25.0
1396,58.74613003095975,25.0
1397,61.808243034055735,25.0
1398,58.688080495356026,25.0
1399,59.249226006191954,25.0
1400,59.916795665634666,25.0
1401,58.625193498452006,25.0
1402,55.96942724458204,25.0
1403,56.28386222910217,25.0
1404,58.31559597523219,25.0
1405,60.095781733746136,25.0
1406,62.33552631578949,25.0
1407,55.171246130030966,25.0
1408,55.81462848297212,25.0
1409,59.44756191950464,25.0
1410,60.58920278637771,25.0
1411,55.89686532507739,25.0
1412,56.917569659442734,25.0
1413,59.11377708978328,25.0
1414,58.08339783281733,25.0
1415,55.76625386996905,25.0
1416,58.90576625386998,25.0
1417,57.5077399380805,25.0
1418,59.55398606811145,25.0
1419,54.41176470588235,25.0
1420,56.893382352941174,25.0
1421,56.13873839009288,25.0
1422,61.93885448916409,25.0
1423,58.702592879256976,25.0
1424,57.83668730650155,25.0
1425,60.579527863777095,25.0
1426,58.15595975232198,25.0
1427,56.559597523219814,25.0
1428,55.001934984520126,25.0
1429,53.700657894736835,25.0
1430,60.153831269349844,25.0
1431,60.07643188854488,25.0
1432,60.294117647058826,25.0
1433,60.55534055727554,25.0
1434,63.77225232198143,25.0
1435,55.20994582043345,25.0
1436,55.25348297213623,25.0
1437,60.284442724458195,25.0
1438,59.68459752321981,25.0
1439,59.215363777089784,25.0
1440,58.068885448916404,25.0
1441,58.799342105263165,25.0
1442,58.10274767801858,25.0
1443,58.92995356037152,25.0
1444,52.612229102167184,25.0
1445,56.33707430340558,25.0
1446,56.88370743034056,25.0
1447,59.15247678018576,25.0
1448,58.28657120743034,25.0
1449,58.53811919504644,25.0
1450,59.85390866873065,25.0
1451,60.24574303405572,25.0
1452,55.53889318885449,25.0
1453,61.40189628482972,25.0
1454,61.16969814241485,25.0
1455,55.05514705882353,25.0
1456,59.4233746130031,25.0
1457,57.6625386996904,25.0
1458,56.58862229102167,25.0
1459,57.5125773993808,25.0
1460,61.4938080495356,25.0
1461,55.35990712074304,25.0
1462,54.6342879256966,25.0
1463,58.49941950464397,25.0
1464,61.06811145510836,25.0
1465,56.01780185758514,25.0
1466,58.52360681114551,25.0
1467,57.4109907120743,25.0
1468,52.69446594427244,25.0
1469,54.1360294117647,25.0
1470,56.511222910216716,25.0
1471,56.03715170278639,25.0
1472,58.76064241486068,25.0
1473,55.81946594427245,25.0
1474,58.688080495356026,25.0
1475,56.92724458204334,25.0
1476,60.71981424148606,25.0
1477,57.07720588235294,25.0
1478,57.54160216718267,25.0
1479,58.630030959752325,25.0
1480,59.01702786377709,25.0
1481,54.005417956656345,25.0
1482,59.62171052631578,25.0
1483,54.460139318885446,25.0
1484,59.786184210526315,25.0
1485,58.20917182662539,25.0
1486,60.82140092879256,25.0
1487,59.19601393188855,25.0
1488,60.74400154798761,25.0
1489,54.57623839009288,25.0
1490,59.87325851393188,25.0
1491,54.997097523219814,25.0
1492,53.07662538699691,25.0
1493,56.89338235294117,25.0
1494,58.494582043343655,25.0
1495,61.576044891640855,25.0
1496,59.37016253869969,25.0
1497,53.85061919504644,25.0
1498,53.21207430340557,25.0
1499,59.166989164086694,25.0
1500,58.57681888544892,25.0
1501,54.67298761609907,25.0
1502,54.774574303405565,25.0
1503,59.43304953560372,25.0
1504,54.460139318885446,25.0
1505,53.95220588235294,25.0
1506,59.75715944272446,25.0
1507,57.05301857585139,25.0
1508,59.06056501547988,25.0
1509,58.09791021671827,25.0
1510,59.68459752321981,25.0
1511,54.914860681114554,25.0
1512,56.883707430340564,25.0
1513,58.65421826625386,25.0
1514,58.50425696594427,25.0
1515,53.81191950464397,25.0
1516,59.86358359133128,25.0
1517,59.002515479876166,25.0
1518,55.61629256965944,25.0
1519,61.837267801857585,25.0
1520,63.143382352941174,25.0
1521,60.424729102167184,25.0
1522,55.717879256965944,25.0
1523,55.77109133126935,25.0
1524,57.46904024767803,25.0
1525,58.59133126934984,25.0
1526,57.27070433436532,25.0
1527,60.990712074303396,25.0
1528,53.74903250773994,25.0
1529,59.4282120743034,25.0
1530,61.2906346749226,25.0
1531,58.90092879256966,25.0
1532,56.428986068111456,25.0
1533,56.35642414860681,25.0
1534,59.0750773993808,25.0
1535,57.386803405572756,25.0
1536,58.85255417956657,25.0
1537,63.09500773993809,25.0
1538,59.06056501547988,25.0
1539,55.70820433436532,25.0
1540,60.77302631578947,25.0
1541,53.76838235294118,25.0
1542,56.211300309597526,25.0
1543,52.71381578947369,25.0
1544,56.48703560371518,25.0
1545,54.85197368421053,25.0
1546,58.60584365325079,25.0
1547,59.14763931888545,25.0
1548,56.16776315789474,25.0
1549,59.882933436532504,25.0
1550,54.08765479876161,25.0
1551,58.52844427244582,25.0
1552,52.747678018575854,25.0
1553,61.213235294117645,25.0
1554,61.15518575851394,25.0
1555,58.93962848297213,25.0
1556,51.97368421052631,25.0
1557,59.07507739938081,25.0
1558,58.431695046439636,25.0
1559,55.42763157894736,25.0
1560,59.099264705882355,25.0
1561,60.14415634674922,25.0
1562,58.53328173374613,25.0
1563,55.171246130030966,25.0
1564,61.39222136222911,25.0
1565,55.01160990712074,25.0
1566,57.94794891640867,25.0
1567,60.29895510835913,25.0
1568,62.02592879256966,25.0
1569,59.079914860681114,25.0
1570,55.89202786377708,25.0
1571,56.92240712074304,25.0
1572,57.77380030959752,25.0
1573,58.11242260061919,25.0
1574,56.22581269349845,25.0
1575,57.58030185758515,25.0
1576,55.587267801857585,25.0
1577,62.56772445820434,25.0
1578,56.453173374612994,25.0
1579,57.856037151702786,25.0
1580,63.14821981424149,25.0
1581,58.73161764705883,25.0
1582,57.99148606811145,25.0
1583,61.67763157894736,25.0
1584,57.62383900928793,25.0
1585,55.350232198142415,25.0
1586,58.12209752321981,25.0
1587,52.563854489164086,25.0
1588,58.18014705882353,25.0
1589,59.5249613003096,25.0
1590,57.24167956656348,25.0
1591,55.31153250773993,25.0
1592,62.10332817337462,25.0
1593,55.72755417956656,25.0
1594,49.37596749226007,25.0
1595,56.18711300309597,25.0
1596,57.89473684210526,25.0
1597,59.858746130030966,25.0
1598,58.978328173374614,25.0
1599,57.35294117647059,25.0
1600,59.41853715170277,25.0
1601,52.757352941176464,25.0
1602,56.898219814241486,25.0
1603,57.69640092879257,25.0
1604,60.04256965944273,25.0
1605,62.91118421052631,25.0
1606,54.8374613003096,25.0
1607,60.652089783281724,25.0
1608,55.089009287925684,25.0
1609,59.007352941176464,25.0
1610,59.07507739938081,25.0
1611,54.95356037151702,25.0
1612,62.408088235294116,25.0
1613,60.342492260061924,25.0
1614,60.49245356037152,25.0
1615,56.30804953560372,25.0
1616,51.35448916408668,25.0
1617,52.829914860681114,25.0
1618,60.63757739938081,25.0
1619,59.16698916408669,25.0
1620,61.32449690402477,25.0
1621,61.160023219814256,25.0
1622,58.67840557275542,25.0
1623,61.03424922600619,25.0
1624,59.703947368421055,25.0
1625,56.70472136222911,25.0
1626,58.3688080495356,25.0
1627,58.23335913312694,25.0
1628,59.79102167182663,25.0
1629,53.73935758513932,25.0
1630,59.19117647058823,25.0
1631,60.197368421052644,25.0
1632,56.14357585139319,25.0
1633,59.0750773993808,25.0
1634,58.262383900928796,25.0
1635,60.9955495356037,25.0
1636,54.484326625387,25.0
1637,57.033668730650156,25.0
1638,57.82701238390092,25.0
1639,52.525154798761605,25.0
1640,59.66524767801857,25.0
1641,53.39589783281734,25.0
1642,60.50212848297215,25.0
1643,59.91195820433436,25.0
1644,58.15595975232198,25.0
1645,64.50270897832819,25.0
1646,55.57759287925697,25.0
1647,57.686726006191954,25.0
1648,60.46826625386998,25.0
1649,59.98935758513932,25.0
1650,53.734520123839,25.0
1651,57.14976780185758,25.0
1652,60.63757739938081,25.0
1653,57.904411764705884,25.0
1654,55.22445820433437,25.0
1655,59.200851393188856,25.0
1656,62.127515479876166,25.0
1657,56.68537151702786,25.0
1658,52.578366873065015,25.0
1659,57.14009287925697,25.0
1660,60.73916408668732,25.0
1661,59.48626160990712,25.0
1662,59.44756191950464,25.0
1663,55.35990712074304,25.0
1664,59.370162538699695,25.0
1665,55.795278637770885,25.0
1666,55.10352167182663,25.0
1667,56.24516253869968,25.0
1668,56.01296439628483,25.0
1669,59.612035603715164,25.0
1670,58.85255417956656,25.0
1671,57.662538699690394,25.0
1672,58.0640479876161,25.0
1673,58.78482972136223,25.0
1674,61.8953173374613,25.0
1675,60.90363777089783,25.0
1676,55.785603715170275,25.0
1677,56.98045665634676,25.0
1678,54.256965944272444,25.0
1679,60.294117647058826,25.0
1680,56.92240712074303,25.0
1681,59.602360681114554,25.0
1682,58.86706656346751,25.0
1683,62.24845201238389,25.0
1684,58.99767801857585,25.0
1685,54.087654798761605,25.0
1686,56.31288699690403,25.0
1687,53.50232198142415,25.0
1688,58.397832817337466,25.0
1689,58.05437306501547,25.0
1690,60.06675696594427,25.0
1691,59.534636222910216,25.0
1692,59.60236068111456,25.0
1693,62.28231424148606,25.0
1694,55.96942724458205,25.0
1695,58.339783281733745,25.0
1696,60.45375386996904,25.0
1697,55.58243034055728,25.0
1698,61.290634674922615,25.0
1699,55.567917956656345,25.0
1700,56.27902476780185,25.0
1701,62.10332817337462,25.0
1702,56.95143188854488,25.0
1703,60.74400154798762,25.0
1704,57.52708978328173,25.0
1705,59.52012383900928,25.0
1706,60.06675696594428,25.0
1707,62.42743808049534,25.0
1708,62.016253869969034,25.0
1709,55.65499226006192,25.0
1710,60.93266253869968,25.0
1711,57.58997678018576,25.0
1712,56.07101393188855,25.0
1713,59.63622291021672,25.0
1714,60.16350619195047,25.0
1715,60.594040247678016,25.0
1716,61.27612229102168,25.0
1717,58.60100619195047,25.0
1718,56.97078173374612,25.0
1719,59.66524767801857,25.0
1720,58.88641640866873,25.0
1721,55.10352167182663,25.0
1722,56.58862229102167,25.0
1723,62.10816563467494,25.0
1724,54.07314241486068,25.0
1725,58.978328173374614,25.0
1726,58.262383900928796,25.0
1727,60.2312306501548,25.0
1728,57.29005417956657,25.0
1729,56.33223684210526,25.0
1730,54.13119195046439,25.0
1731,61.21807275541795,25.0
1732,53.96188080495355,25.0
1733,56.88370743034055,25.0
1734,59.215363777089784,25.0
1735,59.166989164086694,25.0
1736,63.84965170278639,25.0
1737,59.17666408668731,25.0
1738,59.94098297213622,25.0
1739,58.15112229102167,25.0
1740,61.09229876160992,25.0
1741,59.85874613003096,25.0
1742,55.48568111455108,25.0
1743,57.22232972136223,25.0
1744,55.48084365325077,25.0
1745,59.26373839009288,25.0
1746,56.19195046439629,25.0
1747,56.46284829721362,25.0
1748,61.57120743034055,25.0
1749,56.11455108359133,25.0
1750,60.41021671826625,25.0
1751,61.17937306501549,25.0
1752,58.07372291021673,25.0
1753,55.57275541795666,25.0
1754,55.229295665634666,25.0
1755,57.99632352941177,25.0
1756,64.94775541795666,25.0
1757,60.50696594427245,25.0
1758,59.91195820433436,25.0
1759,56.071013931888544,25.0
1760,56.15325077399382,25.0
1761,55.6985294117647,25.0
1762,58.71710526315788,25.0
1763,53.71517027863777,25.0
1764,55.9452399380805,25.0
1765,54.38273993808051,25.0
1766,56.87886996904024,25.0
1767,58.8670665634675,25.0
1768,54.66331269349844,25.0
1769,61.81308049535604,25.0
1770,53.90866873065015,25.0
1771,59.152476780185744,25.0
1772,57.88506191950465,25.0
1773,56.012964396284815,25.0
1774,55.2438080495356,25.0
1775,58.20917182662538,25.0
1776,54.26664086687307,25.0
1777,58.005998452012385,25.0
1778,57.720588235294116,25.0
1779,52.95085139318885,25.0
1780,59.263738390092875,25.0
1781,58.746130030959755,25.0
1782,58.29140866873065,25.0
1783,55.3502321981424,25.0
1784,61.55185758513932,25.0
1785,55.717879256965944,25.0
1786,57.37712848297213,25.0
1787,57.149767801857585,25.0
1788,57.51741486068111,25.0
1789,59.30727554179566,25.0
1790,54.70684984520124,25.0
1791,57.904411764705884,25.0
1792,55.22929566563467,25.0
1793,52.423568111455104,25.0
1794,59.220201238390096,25.0
1795,60.41021671826626,25.0
1796,52.39938080495356,25.0
1797,53.11048761609907,25.0
1798,53.42976006191951,25.0
1799,62.45646284829721,25.0
1800,56.08068885448916,25.0
1801,59.84907120743034,25.0
1802,54.711687306501545,25.0
1803,53.632933436532504,25.0
1804,57.11590557275541,25.0
1805,58.03018575851394,25.0
1806,58.562306501547994,25.0
1807,57.50290247678019,25.0
1808,55.26799535603715,25.0
1809,56.11455108359132,25.0
1810,57.71091331269349,25.0
1811,59.660410216718276,25.0
1812,59.017027863777095,25.0
1813,56.008126934984524,25.0
1814,57.92859907120743,25.0
1815,58.79450464396285,25.0
1816,57.66737616099072,25.0
1817,62.233939628482965,25.0
1818,57.169117647058826,25.0
1819,55.21962074303406,25.0
1820,61.06327399380805,25.0
1821,59.882933436532504,25.0
1822,56.757933436532504,25.0
1823,58.43653250773995,25.0
1824,54.57140092879258,25.0
1825,60.56017801857585,25.0
1826,56.211300309597526,25.0
1827,58.70259287925696,25.0
1828,61.116486068111456,25.0
1829,59.8297213622291,25.0
1830,57.08688080495356,25.0
1831,55.90170278637771,25.0
1832,60.96168730650156,25.0
1833,57.78347523219813,25.0
1834,59.02670278637771,25.0
1835,62.08397832817337,25.0
1836,53.31849845201239,25.0
1837,57.048181114551085,25.0
1838,57.99148606811145,25.0
1839,59.59752321981425,25.0
1840,59.06056501547988,25.0
1841,58.56714396284829,25.0
1842,58.72678018575851,25.0
1843,62.398413312693506,25.0
1844,59.33630030959752,25.0
1845,60.23606811145511,25.0
1846,52.74284055727555,25.0
1847,63.00309597523219,25.0
1848,59.815208978328165,25.0
1849,56.980456656346746,25.0
1850,53.66679566563467,25.0
1851,57.96729876160992,25.0
1852,60.0812693498452,25.0
1853,57.531927244582036,25.0
1854,53.36203560371518,25.0
1855,61.232585139318886,25.0
1856,59.4717492260062,25.0
1857,61.150348297213625,25.0
1858,58.151122291021665,25.0
1859,58.65421826625387,25.0
1860,57.44485294117647,25.0
1861,57.64802631578947,25.0
1862,59.28792569659442,25.0
1863,58.75096749226005,25.0
1864,58.68808049535603,25.0
1865,56.09520123839008,25.0
1866,60.20220588235294,25.0
1867,60.327979876160995,25.0
1868,58.025348297213625,25.0
1869,58.1124226006192,25.0
1870,57.7060758513932,25.0
1871,57.18846749226006,25.0
1872,63.26431888544891,25.0
1873,53.20723684210527,25.0
1874,58.054373065015476,25.0
1875,57.38196594427243,25.0
1876,54.96807275541795,25.0
1877,55.921052631578945,25.0
1878,63.20143188854489,25.0
1879,58.460719814241486,25.0
1880,60.10061919504645,25.0
1881,60.424729102167184,25.0
1882,56.57894736842104,25.0
1883,59.471749226006196,25.0
1884,56.42898606811145,25.0
1885,60.01838235294118,25.0
1886,59.30727554179566,25.0
1887,58.06888544891641,25.0
1888,53.14434984520125,25.0
1889,55.20027089783282,25.0
1890,59.00735294117647,25.0
1891,58.22368421052631,25.0
1892,59.44756191950465,25.0
1893,57.556114551083596,25.0
1894,61.493808049535616,25.0
1895,60.08126934984521,25.0
1896,61.27128482972136,25.0
1897,62.67898606811144,25.0
1898,55.15673374613003,25.0
1899,59.14763931888546,25.0
1900,57.89957430340557,25.0
1901,57.47871517027863,25.0
1902,57.74961300309598,25.0
1903,55.219620743034056,25.0
1904,55.40828173374613,25.0
1905,56.719233746130016,25.0
1906,57.03366873065016,25.0
1907,56.25967492260062,25.0
1908,56.071013931888544,25.0
1909,54.67782507739939,25.0
1910,60.57469040247679,25.0
1911,58.58649380804953,25.0
1912,56.46768575851394,25.0
1913,56.14357585139319,25.0
1914,56.28386222910216,25.0
1915,54.26664086687307,25.0
1916,55.47600619195046,25.0
1917,60.46342879256966,25.0
1918,64.73490712074303,25.0
1919,53.33784829721362,25.0
1920,55.42763157894737,25.0
1921,55.51954334365325,25.0
1922,52.33165634674923,25.0
1923,55.785603715170275,25.0
1924,58.83804179566563,25.0
1925,57.0046439628483,25.0
1926,59.331462848297214,25.0
1927,58.83320433436533,25.0
1928,57.20781733746131,25.0
1929,58.397832817337466,25.0
1930,54.910023219814235,25.0
1931,60.386029411764696,25.0
1932,61.03424922600619,25.0
1933,55.30185758513932,25.0
1934,57.319078947368425,25.0
1935,54.21342879256966,25.0
1936,61.05359907120743,25.0
1937,57.96729876160991,25.0
1938,61.08262383900929,25.0
1939,57.75928792569658,25.0
1940,57.92859907120743,25.0
1941,54.194078947368425,25.0
1942,59.31695046439628,25.0
1943,60.70046439628483,25.0
1944,56.27902476780186,25.0
1945,56.51606037151703,25.0
1946,58.42685758513932,25.0
1947,55.81462848297214,25.0
1948,55.64047987616099,25.0
1949,60.3328173374613,25.0
1950,57.34326625386996,25.0
1951,60.357004643962846,25.0
1952,65.08320433436533,25.0
1953,56.77728328173375,25.0
1954,56.16292569659442,25.0
1955,58.480069659442734,25.0
1956,53.06211300309598,25.0
1957,58.320433436532504,25.0
1958,54.51818885448916,25.0
1959,58.80901702786378,25.0
1960,56.83049535603715,25.0
1961,58.53328173374613,25.0
1962,59.94582043343652,25.0
1963,57.73026315789474,25.0
1964,58.69775541795665,25.0
1965,57.16911764705882,25.0
1966,59.59752321981425,25.0
1967,57.74477554179567,25.0
1968,57.59965170278639,25.0
1969,56.762770897832816,25.0
1970,52.810565015479874,25.0
1971,55.050309597523224,25.0
1972,58.16079721362229,25.0
1973,59.35081269349845,25.0
1974,54.92937306501548,25.0
1975,59.52979876160991,25.0
1976,60.08610681114551,25.0
1977,60.342492260061924,25.0
1978,61.6969814241486,25.0
1979,60.22639318885448,25.0
1980,56.8546826625387,25.0
1981,60.70046439628483,25.0
1982,59.84423374613003,25.0
1983,57.34326625386997,25.0
1984,57.67221362229102,25.0
1985,56.54024767801858,25.0
1986,60.14415634674921,25.0
1987,60.49245356037152,25.0
1988,61.600232198142415,25.0
1989,54.256965944272444,25.0
1990,56.25,25.0
1991,57.88989938080495,25.0
1992,55.31636996904024,25.0
1993,58.16563467492261,25.0
1994,61.26160990712075,25.0
1995,58.15595975232198,25.0
1996,60.11029411764705,25.0
1997,59.87325851393189,25.0
1998,58.22368421052631,25.0
1999,56.19195046439628,25.0
2000,57.41582817337461,25.0
2001,62.01625386996904,25.0
2002,62.55321207430341,25.0
2003,59.87809597523219,25.0
2004,58.78966718266254,25.0
2005,54.52302631578948,25.0
2006,56.97078173374613,25.0
2007,56.92240712074303,25.0
2008,55.180921052631575,25.0
2009,54.27147832817337,25.0
2010,57.27070433436532,25.0
2011,62.31133900928793,25.0
2012,54.07314241486068,25.0
2013,55.73239164086687,25.0
2014,55.09384674922602,25.0
2015,57.991486068111456,25.0
2016,57.943111455108365,25.0
2017,62.93537151702785,25.0
2018,63.23045665634675,25.0
2019,56.898219814241486,25.0
2020,56.951431888544896,25.0
2021,53.337848297213625,25.0
2022,60.67627708978327,25.0
2023,62.15170278637772,25.0
2024,56.64667182662538,25.0
2025,57.33842879256965,25.0
2026,55.21962074303405,25.0
2027,60.323142414860676,25.0
2028,57.028831269349844,25.0
2029,57.29005417956656,25.0
2030,57.09171826625387,25.0
2031,55.63564241486068,25.0
2032,58.90576625386997,25.0
2033,54.276315789473685,25.0
2034,57.522252321981426,25.0
2035,58.60100619195047,25.0
2036,54.111842105263165,25.0
2037,55.00677244582044,25.0
2038,57.77380030959753,25.0
2039,57.20297987616099,25.0
2040,56.20162538699691,25.0
2041,60.598877708978335,25.0
2042,59.55882352941177,25.0
2043,57.84636222910217,25.0
2044,58.48974458204334,25.0
2045,59.36532507739939,25.0
2046,59.35081269349845,25.0
2047,59.46691176470588,25.0
2048,56.11455108359133,25.0
2049,57.05301857585139,25.0
2050,57.89473684210527,25.0
2051,55.858165634674926,25.0
2052,57.46420278637771,25.0
2053,58.34462074303405,25.0
2054,57.56095201238391,25.0
2055,56.30321207430341,25.0
2056,59.82972136222911,25.0
2057,57.270704334365334,25.0
2058,57.715750773993804,25.0
2059,60.327979876160995,25.0
2060,57.59965170278638,25.0
2061,62.12267801857585,25.0
2062,59.55882352941177,25.0
2063,57.09655572755418,25.0
2064,60.58920278637771,25.0
2065,56.16776315789474,25.0
2066,55.68401702786378,25.0
2067,55.50986842105263,25.0
2068,58.842879256965944,25.0
2069,60.269930340557266,25.0
2070,54.784249226006196,25.0
2071,56.1000386996904,25.0
2072,58.7703173374613,25.0
2073,61.5421826625387,25.0
2074,57.976973684210535,25.0
2075,58.818691950464405,25.0
2076,54.11184210526315,25.0
2077,57.149767801857585,25.0
2078,52.98955108359133,25.0
2079,64.59945820433438,25.0
2080,61.42608359133128,25.0
2081,57.42066563467492,25.0
2082,60.11513157894736,25.0
2083,55.32120743034055,25.0
2084,61.005224458204324,25.0
2085,59.98452012383901,25.0
2086,55.693691950464384,25.0
2087,60.318304953560364,25.0
2088,60.07159442724459,25.0
2089,58.39299535603715,25.0
2090,56.27418730650155,25.0
2091,58.3639705882353,25.0
2092,57.22232972136223,25.0
2093,57.0578560371517,25.0
2094,55.58243034055727,25.0
2095,64.77844427244584,25.0
2096,58.5671439628483,25.0
2097,57.33359133126935,25.0
2098,55.61629256965944,25.0
2099,53.889318885448915,25.0
2100,57.362616099071204,25.0
2101,59.25890092879256,25.0
2102,55.887190402476776,25.0
2103,60.82140092879256,25.0
2104,58.39299535603715,25.0
2105,56.99496904024767,25.0
2106,48.25367647058823,25.0
2107,58.90576625386997,25.0
2108,56.2548374613003,25.0
2109,63.28366873065016,25.0
2110,59.50077399380805,25.0
2111,52.62674148606811,25.0
2112,57.30456656346749,25.0
2113,53.47329721362229,25.0
2114,58.35429566563467,25.0
2115,58.997678018575854,25.0
2116,57.78347523219814,25.0
2117,56.95626934984519,25.0
2118,56.52089783281733,25.0
2119,56.71923374613003,25.0
2120,54.61010061919505,25.0
2121,57.56095201238389,25.0
2122,60.29895510835913,25.0
2123,59.88777089783281,25.0
2124,57.79315015479877,25.0
2125,57.98664860681114,25.0
2126,58.8235294117647,25.0
2127,57.207817337461314,25.0
2128,59.882933436532504,25.0
2129,59.771671826625386,25.0
2130,60.09578173374612,25.0
2131,56.5499226006192,25.0
2132,62.06462848297213,25.0
2133,58.53811919504642,25.0
2134,59.060565015479874,25.0
2135,59.6797600619195,25.0
2136,61.66795665634675,25.0
2137,58.38332043343653,25.0
2138,52.7718653250774,25.0
2139,55.20510835913313,25.0
2140,53.9812306501548,25.0
2141,59.7765092879257,25.0
2142,59.732972136222905,25.0
2143,60.44407894736842,25.0
2144,56.946594427244584,25.0
2145,60.79237616099071,25.0
2146,53.34268575851394,25.0
2147,59.27341331269349,25.0
2148,58.41718266253869,25.0
2149,55.20510835913313,25.0
2150,57.014318885448915,25.0
2151,56.52089783281733,25.0
2152,55.78076625386997,25.0
2153,53.371710526315795,25.0
2154,57.39647832817338,25.0
2155,57.74961300309597,25.0
2156,54.35855263157895,25.0
2157,60.09578173374613,25.0
2158,56.63215944272446,25.0
2159,56.98529411764705,25.0
2160,57.972136222910216,25.0
2161,56.85952012383901,25.0
2162,56.835332817337466,25.0
2163,58.29140866873065,25.0
2164,58.99284055727555,25.0
2165,59.7281346749226,25.0
2166,58.175309597523224,25.0
2167,63.71420278637771,25.0
2168,54.81327399380807,25.0
2169,62.35487616099073,25.0
2170,59.046052631578945,25.0
2171,60.68595201238391,25.0
2172,57.41099071207431,25.0
2173,57.74477554179567,25.0
2174,56.31288699690403,25.0
2175,60.298955108359145,25.0
2176,63.414280185758514,25.0
2177,60.77302631578947,25.0
2178,60.284442724458195,25.0
2179,57.79315015479877,25.0
2180,56.48703560371517,25.0
2181,56.27902476780185,25.0
2182,59.433049535603715,25.0
2183,53.21691176470588,25.0
2184,60.80205108359134,25.0
2185,60.50696594427245,25.0
2186,56.375773993808046,25.0
2187,58.257546439628484,25.0
2188,56.791795665634666,25.0
2189,60.2312306501548,25.0
2190,63.13370743034055,25.0
2191,56.13390092879257,25.0
2192,59.63622291021672,25.0
2193,59.40886222910216,25.0
2194,57.938273993808046,25.0
2195,58.77515479876161,25.0
2196,61.290634674922615,25.0
2197,56.762770897832816,25.0
2198,58.32043343653251,25.0
2199,54.682662538699695,25.0
2200,59.88777089783281,25.0
2201,55.67917956656348,25.0
2202,57.483552631578945,25.0
2203,57.41582817337461,25.0
2204,55.930727554179555,25.0
2205,59.37500000000001,25.0
2206,58.707430340557266,25.0
2207,54.10700464396285,25.0
2208,52.30746904024768,25.0
2209,61.59055727554179,25.0
2210,55.364744582043336,25.0
2211,55.54856811145511,25.0
2212,58.155959752321984,25.0
2213,56.912732198142415,25.0
2214,58.64938080495355,25.0
2215,60.65208978328174,25.0
2216,58.79934210526316,25.0
2217,56.30804953560372,25.0
2218,62.70317337461299,25.0
2219,58.630030959752325,25.0
2220,53.976393188854495,25.0
2221,63.801277089783284,25.0
2222,57.40131578947368,25.0
2223,60.23606811145511,25.0
2224,57.657701238390096,25.0
2225,57.85603715170279,25.0
2226,58.0108359133127,25.0
2227,49.38564241486068,25.0
2228,58.06404798761611,25.0
2229,62.446787925696604,25.0
2230,58.34945820433437,25.0
2231,58.910603715170275,25.0
2232,58.89609133126935,25.0
2233,59.40886222910216,25.0
2234,54.33436532507739,25.0
2235,58.60584365325077,25.0
2236,67.35197368421052,25.0
2237,60.01838235294117,25.0
2238,59.616873065015476,25.0
2239,57.75928792569659,25.0
2240,60.81656346749225,25.0
2241,62.775735294117645,25.0
2242,55.954914860681114,25.0
2243,66.9359520123839,25.0
2244,61.53250773993809,25.0
2245,62.9015092879257,25.0
2246,59.12345201238389,25.0
2247,58.392995356037154,25.0
2248,57.40615325077401,25.0
2249,55.8968653250774,25.0
2250,55.72755417956656,25.0
2251,54.682662538699695,25.0
2252,59.46207430340557,25.0
2253,58.678405572755416,25.0
2254,61.880804953560364,25.0
2255,56.138738390092875,25.0
2256,54.45046439628483,25.0
2257,58.05437306501547,25.0
2258,60.01838235294116,25.0
2259,58.07856037151703,25.0
2260,61.343846749226,25.0
2261,58.847716718266255,25.0
2262,61.7453560371517,25.0
2263,55.88719040247679,25.0
2264,58.02534829721361,25.0
2265,61.11164860681115,25.0
2266,59.69427244582044,25.0
2267,60.1828560371517,25.0
2268,58.204334365325074,25.0
2269,54.68749999999999,25.0
2270,58.31075851393189,25.0
2271,58.46071981424149,25.0
2272,60.76335139318885,25.0
2273,54.56656346749225,25.0
2274,57.89957430340558,25.0
2275,58.98800309597523,25.0
2276,57.096555727554176,25.0
2277,60.44407894736842,25.0
2278,56.67569659442724,25.0
2279,57.09655572755418,25.0
2280,59.070239938080505,25.0
2281,56.656346749226,25.0
2282,57.401315789473685,25.0
2283,59.07507739938082,25.0
2284,56.699883900928796,25.0
2285,54.9390479876161,25.0
2286,58.7219427244582,25.0
2287,57.31907894736842,25.0
2288,54.25212848297214,25.0
2289,60.80205108359134,25.0
2290,59.786184210526315,25.0
2291,54.71168730650155,25.0
2292,53.16369969040247,25.0
2293,55.79044117647059,25.0
2294,54.69717492260062,25.0
2295,59.98452012383901,25.0
2296,57.58513931888545,25.0
2297,55.824303405572756,25.0
2298,55.534055727554176,25.0
2299,56.86919504643963,25.0
2300,58.005998452012385,25.0
2301,57.45452786377708,25.0
2302,57.962461300309606,25.0
2303,54.17472910216718,25.0
2304,54.56656346749225,25.0
2305,60.390866873065015,25.0
2306,57.59965170278638,25.0
2307,59.57817337461301,25.0
2308,52.55417956656347,25.0
2309,58.95414086687306,25.0
2310,62.369388544891656,25.0
2311,57.33359133126935,25.0
2312,57.12558049535603,25.0
2313,59.05572755417956,25.0
2314,61.17453560371517,25.0
2315,61.52767027863777,25.0
2316,57.435178018575854,25.0
2317,54.11184210526316,25.0
2318,59.53947368421052,25.0
2319,58.92027863777089,25.0
2320,61.76470588235293,25.0
2321,60.45859133126935,25.0
2322,62.27747678018576,25.0
2323,58.16079721362229,25.0
2324,54.731037151702786,25.0
2325,57.517414860681114,25.0
2326,58.07372291021672,25.0
2327,56.835332817337466,25.0
2328,59.80069659442725,25.0
2329,57.89473684210525,25.0
2330,63.29334365325077,25.0
2331,61.50832043343653,25.0
2332,60.06191950464396,25.0
2333,57.01915634674922,25.0
2334,59.766834365325074,25.0
2335,59.70394736842104,25.0
2336,58.475232198142415,25.0
2337,62.99342105263158,25.0
2338,55.3937693498452,25.0
2339,59.91679566563467,25.0
2340,59.8297213622291,25.0
2341,61.30514705882353,25.0
2342,58.29140866873064,25.0
2343,56.08552631578947,25.0
2344,59.00251547987616,25.0
2345,55.82430340557276,25.0
2346,58.862229102167184,25.0
2347,57.90441176470588,25.0
2348,57.79798761609908,25.0
2349,64.39144736842105,25.0
2350,55.2389705882353,25.0
2351,60.0328947368421,25.0
2352,62.824109907120764,25.0
2353,55.01644736842106,25.0
2354,58.8186919504644,25.0
2355,57.715750773993804,25.0
2356,58.95897832817337,25.0
2357,59.30243808049537,25.0
2358,60.52631578947368,25.0
2359,57.89473684210527,25.0
2360,59.9796826625387,25.0
2361,59.9796826625387,25.0
2362,55.766253869969034,25.0
2363,60.18285603715171,25.0
2364,53.48780959752322,25.0
2365,62.9934210526316,25.0
2366,59.515286377708975,25.0
2367,60.45375386996904,25.0
2368,57.130417956656345,25.0
2369,57.788312693498455,25.0
2370,61.087461300309606,25.0
2371,58.775154798761605,25.0
2372,58.557469040247675,25.0
2373,57.193304953560364,25.0
2374,61.20356037151702,25.0
2375,61.75986842105264,25.0
2376,59.34597523219815,25.0
2377,57.09655572755418,25.0
2378,56.97078173374613,25.0
2379,59.50077399380806,25.0
2380,50.08223684210526,25.0
2381,56.45317337461301,25.0
2382,59.95549535603715,25.0
2383,53.41041021671827,25.0
2384,61.29547213622292,25.0
2385,55.76141640866873,25.0
2386,63.32236842105265,25.0
2387,58.455882352941174,25.0
2388,55.50503095975232,25.0
2389,54.50851393188855,25.0
2390,55.80979102167182,25.0
2391,55.335719814241486,25.0
2392,56.64183436532508,25.0
2393,54.52302631578948,25.0
2394,59.04605263157895,25.0
2395,60.15383126934984,25.0
2396,55.098684210526315,25.0
2397,53.8312693498452,25.0
2398,57.328753869969034,25.0
2399,62.12267801857585,25.0
2400,60.52631578947369,25.0
2401,60.60855263157896,25.0
2402,56.11455108359133,25.0
2403,60.55534055727554,25.0
2404,54.93421052631579,25.0
2405,58.02534829721362,25.0
2406,55.26315789473684,25.0
2407,57.585139318885446,25.0
2408,61.43092105263158,25.0
2409,56.73374613003096,25.0
2410,57.14493034055728,25.0
2411,55.72271671826627,25.0
2412,53.89899380804954,25.0
2413,57.23684210526316,25.0
2414,54.19891640866873,25.0
2415,57.98181114551084,25.0
2416,57.609326625387,25.0
2417,58.92027863777089,25.0
2418,55.73722910216719,25.0
2419,57.23684210526316,25.0
2420,54.169891640866865,25.0
2421,57.51257739938081,25.0
2422,60.31346749226006,25.0
2423,52.549342105263165,25.0
2424,57.904411764705884,25.0
2425,56.4483359133127,25.0
2426,60.26993034055728,25.0
2427,57.73510061919505,25.0
2428,57.38680340557275,25.0
2429,52.476780185758514,25.0
2430,56.99013157894736,25.0
2431,55.09384674922601,25.0
2432,58.73645510835914,25.0
2433,58.33494582043345,25.0
2434,62.46130030959754,25.0
2435,58.17047213622291,25.0
2436,55.23897058823529,25.0
2437,56.932082043343655,25.0
2438,59.09442724458205,25.0
2439,57.9140866873065,25.0
2440,61.421246130030966,25.0
2441,56.19195046439628,25.0
2442,59.63138544891641,25.0
2443,55.858165634674926,25.0
2444,57.23200464396285,25.0
2445,60.03289473684211,25.0
2446,56.970781733746136,25.0
2447,56.516060371517035,25.0
2448,55.10835913312694,25.0
2449,57.817337461300305,25.0
2450,60.31346749226006,25.0
2451,59.297600619195045,25.0
2452,60.23606811145511,25.0
2453,59.12345201238389,25.0
2454,56.44349845201238,25.0
2455,55.838815789473685,25.0
2456,59.39434984520125,25.0
2457,53.11048761609908,25.0
2458,56.985294117647065,25.0
2459,62.51451238390093,25.0
2460,55.001934984520126,25.0
2461,54.47465170278638,25.0
2462,55.12770897832817,25.0
2463,58.50909442724458,25.0
2464,54.77941176470588,25.0
2465,55.97910216718267,25.0
2466,53.41524767801858,25.0
2467,58.601006191950454,25.0
2468,55.07933436532508,25.0
2469,56.7579334365325,25.0
2470,56.109713622291025,25.0
2471,58.891253869969034,25.0
2472,59.29760061919505,25.0
2473,52.74284055727554,25.0
2474,55.350232198142415,25.0
2475,60.44891640866872,25.0
2476,60.34249226006191,25.0
2477,57.03850619195047,25.0
2478,60.25058049535604,25.0
2479,58.98800309597522,25.0
2480,52.19620743034056,25.0
2481,55.82430340557274,25.0
2482,59.66041021671826,25.0
2483,59.12828947368422,25.0
2484,58.78482972136222,25.0
2485,60.47794117647059,25.0
2486,55.71787925696594,25.0
2487,56.94659442724458,25.0
2488,60.047407120743024,25.0
2489,58.12209752321981,25.0
2490,58.8670665634675,25.0
2491,59.77650928792569,25.0
2492,56.91756965944272,25.0
2493,58.862229102167184,25.0
2494,59.578173374612994,25.0
2495,57.33359133126935,25.0
2496,58.175309597523224,25.0
2497,60.308630030959755,25.0
2498,53.17821207430341,25.0
2499,58.591331269349844,25.0
2500,55.35023219814241,25.0
2501,58.9202786377709,25.0
2502,57.522252321981426,25.0
2503,58.330108359133135,25.0
2504,58.81385448916408,25.0
2505,52.68962848297213,25.0
2506,62.18072755417957,25.0
2507,54.90518575851394,25.0
2508,55.20027089783281,25.0
2509,54.45530185758514,25.0
2510,59.70878482972137,25.0
2511,57.604489164086694,25.0
2512,56.79663312693498,25.0
2513,60.00386996904026,25.0
2514,60.97136222910217,25.0
2515,56.39996130030959,25.0
2516,57.5125773993808,25.0
2517,56.946594427244584,25.0
2518,55.432469040247675,25.0
2519,57.97697368421052,25.0
2520,55.23413312693498,25.0
2521,59.31695046439629,25.0
2522,55.567917956656345,25.0
2523,59.38467492260062,25.0
2524,55.72755417956657,25.0
2525,60.903637770897845,25.0
2526,55.804953560371516,25.0
2527,58.19465944272446,25.0
2528,60.642414860681114,25.0
2529,58.66873065015479,25.0
2530,53.71517027863777,25.0
2531,57.149767801857585,25.0
2532,55.29218266253869,25.0
2533,62.44678792569659,25.0
2534,60.74883900928793,25.0
2535,56.49671052631578,25.0
2536,57.193304953560364,25.0
2537,59.60719814241487,25.0
2538,56.21613777089784,25.0
2539,59.77167182662539,25.0
2540,59.97000773993808,25.0
2541,56.274187306501545,25.0
2542,56.91273219814242,25.0
2543,61.11164860681115,25.0
2544,57.65770123839008,25.0
2545,58.57681888544892,25.0
2546,56.07101393188855,25.0
2547,57.236842105263165,25.0
2548,53.773219814241486,25.0
2549,59.84423374613003,25.0
2550,60.80688854489164,25.0
2551,57.720588235294116,25.0
2552,63.143382352941174,25.0
2553,60.342492260061924,25.0
2554,57.61416408668732,25.0
2555,58.15112229102167,25.0
2556,57.19814241486068,25.0
2557,59.18633900928791,25.0
2558,62.519349845201226,25.0
2559,57.449690402476776,25.0
2560,57.193304953560364,25.0
2561,59.37016253869969,25.0
2562,56.48219814241486,25.0
2563,60.632739938080505,25.0
2564,61.29547213622292,25.0
2565,62.30650154798761,25.0
2566,57.517414860681114,25.0
2567,59.447561919504636,25.0
2568,56.32739938080494,25.0
2569,58.50425696594427,25.0
2570,58.049535603715164,25.0
2571,59.858746130030966,25.0
2572,54.36822755417956,25.0
2573,56.095201238390096,25.0
2574,57.14493034055728,25.0
2575,60.68595201238391,25.0
2576,56.56927244582043,25.0
2577,57.8657120743034,25.0
2578,62.175890092879236,25.0
2579,56.046826625387,25.0
2580,59.35565015479876,25.0
2581,54.39725232198142,25.0
2582,55.95491486068111,25.0
2583,59.8297213622291,25.0
2584,60.81656346749225,25.0
2585,59.30727554179567,25.0
2586,55.113196594427244,25.0
2587,60.39570433436532,25.0
2588,54.92453560371517,25.0
2589,61.01973684210526,25.0
2590,57.7641253869969,25.0
2591,61.19388544891641,25.0
2592,58.70743034055727,25.0
2593,60.90363777089782,25.0
2594,62.20975232198143,25.0
2595,58.31075851393189,25.0
2596,55.71787925696594,25.0
2597,54.43111455108359,25.0
2598,57.48355263157894,25.0
2599,57.45936532507741,25.0
2600,59.02670278637771,25.0
2601,62.63061145510836,25.0
2602,57.72542569659443,25.0
2603,55.75174148606811,25.0
2604,59.70394736842105,25.0
2605,57.69640092879258,25.0
2606,60.16350619195047,25.0
2607,56.44833591331269,25.0
2608,53.840944272445824,25.0
2609,58.663893188854495,25.0
2610,56.70472136222911,25.0
2611,59.641060371517035,25.0
2612,58.02534829721361,25.0
2613,60.18769349845201,25.0
2614,60.70530185758515,25.0
2615,60.400541795665625,25.0
2616,59.49109907120742,25.0
2617,58.55263157894737,25.0
2618,55.67917956656347,25.0
2619,55.31153250773994,25.0
2620,61.18904798761609,25.0
2621,64.45917182662541,25.0
2622,58.494582043343655,25.0
2623,60.100619195046434,25.0
2624,57.67705108359133,25.0
2625,60.52147832817337,25.0
2626,60.68595201238391,25.0
2627,58.23335913312693,25.0
2628,60.40054179566564,25.0
2629,55.52921826625386,25.0
2630,54.039280185758514,25.0
2631,57.25135448916408,25.0
2632,56.98529411764706,25.0
2633,60.637577399380795,25.0
2634,60.642414860681114,25.0
2635,59.38951238390093,25.0
2636,58.79450464396285,25.0
2637,55.99361455108359,25.0
2638,58.020510835913306,25.0
2639,55.40828173374614,25.0
2640,56.690208978328165,25.0
2641,58.74129256965944,25.0
2642,58.15595975232198,25.0
2643,57.56578947368422,25.0
2644,58.320433436532504,25.0
2645,57.033668730650156,25.0
2646,55.83881578947369,25.0
2647,55.81462848297213,25.0
2648,59.34113777089783,25.0
2649,56.970781733746136,25.0
2650,57.362616099071204,25.0
2651,54.377902476780186,25.0
2652,55.32120743034056,25.0
2653,61.47445820433436,25.0
2654,56.24032507739938,25.0
2655,60.400541795665625,25.0
2656,59.12828947368421,25.0
2657,58.823529411764696,25.0
2658,60.84558823529413,25.0
2659,56.670859133126925,25.0
2660,59.77650928792569,25.0
2661,56.92724458204334,25.0
2662,61.59055727554179,25.0
2663,59.433049535603715,25.0
2664,58.238196594427244,25.0
2665,56.08552631578947,25.0
2666,59.01702786377709,25.0
2667,57.59965170278638,25.0
2668,59.7281346749226,25.0
2669,62.75638544891641,25.0
2670,57.14976780185758,25.0
2671,57.6625386996904,25.0
2672,56.48703560371517,25.0
2673,54.15054179566563,25.0
2674,58.915441176470594,25.0
2675,57.27554179566563,25.0
2676,56.6031346749226,25.0
2677,54.11667956656347,25.0
2678,58.983165634674926,25.0
2679,61.967879256965944,25.0
2680,57.58997678018576,25.0
2681,60.04256965944273,25.0
2682,58.746130030959755,25.0
2683,57.449690402476776,25.0
2684,60.966524767801864,25.0
2685,59.99903250773993,25.0
2686,58.44136996904025,25.0
2687,57.02399380804953,25.0
2688,62.891834365325074,25.0
2689,54.17472910216718,25.0
2690,57.44485294117647,25.0
2691,57.062693498452006,25.0
2692,56.57410990712075,25.0
2693,53.82643188854488,25.0
2694,57.802825077399376,25.0
2695,61.23742260061919,25.0
2696,55.838815789473685,25.0
2697,56.55476006191951,25.0
2698,61.41640866873065,25.0
2699,58.47039473684211,25.0
2700,59.6265479876161,25.0
2701,59.834558823529406,25.0
2702,63.11919504643962,25.0
2703,57.304566563467496,25.0
2704,57.55611455108359,25.0
2705,59.781346749225996,25.0
2706,55.39860681114551,25.0
2707,58.712267801857585,25.0
2708,57.45452786377709,25.0
2709,60.06191950464396,25.0
2710,59.036377708978335,25.0
2711,58.14144736842106,25.0
2712,53.41524767801858,25.0
2713,60.057082043343655,25.0
2714,60.0280572755418,25.0
2715,54.62461300309597,25.0
2716,58.91544117647058,25.0
2717,56.53541021671827,25.0
2718,53.66195820433437,25.0
2719,59.515286377708975,25.0
2720,62.56288699690402,25.0
2721,56.100038699690415,25.0
2722,57.236842105263165,25.0
2723,56.7047213622291,25.0
2724,56.58862229102168,25.0
2725,57.11590557275541,25.0
2726,56.153250773993804,25.0
2727,58.36397058823529,25.0
2728,54.092492260061924,25.0
2729,53.90383126934984,25.0
2730,58.12209752321981,25.0
2731,57.29005417956657,25.0
2732,55.05514705882353,25.0
2733,59.32662538699691,25.0
2734,57.440015479876166,25.0
2735,61.929179566563455,25.0
2736,56.791795665634666,25.0
2737,62.67414860681115,25.0
2738,56.9030572755418,25.0
2739,61.837267801857585,25.0
2740,58.1172600619195,25.0
2741,53.39589783281734,25.0
2742,59.60719814241485,25.0
2743,60.98587461300309,25.0
2744,57.74477554179566,25.0
2745,57.59481424148606,25.0
2746,59.64589783281734,25.0
2747,57.212654798761605,25.0
2748,54.619775541795676,25.0
2749,58.586493808049525,25.0
2750,59.36048761609908,25.0
2751,55.00677244582043,25.0
2752,54.4359520123839,25.0
2753,52.67027863777089,25.0
2754,55.403444272445824,25.0
2755,55.47600619195047,25.0
2756,59.69910990712076,25.0
2757,57.3094040247678,25.0
2758,56.506385448916404,25.0
2759,58.33494582043343,25.0
2760,63.07565789473685,25.0
2761,59.14763931888545,25.0
2762,57.57546439628483,25.0
2763,60.207043343653254,25.0
2764,52.3703560371517,25.0
2765,54.08765479876161,25.0
2766,53.8312693498452,25.0
2767,56.380611455108365,25.0
2768,54.880998452012385,25.0
2769,61.57120743034055,25.0
2770,62.654798761609904,25.0
2771,62.079140866873075,25.0
2772,55.79044117647059,25.0
2773,56.54992260061919,25.0
2774,59.96517027863777,25.0
2775,59.887770897832816,25.0
2776,55.824303405572756,25.0
2777,57.94794891640866,25.0
2778,59.636222910216716,25.0
2779,55.77109133126936,25.0
2780,56.01780185758514,25.0
2781,60.96168730650156,25.0
2782,57.3577786377709,25.0
2783,59.597523219814235,25.0
2784,56.491873065015476,25.0
2785,57.42550309597522,25.0
2786,60.87945046439627,25.0
2787,60.08610681114551,25.0
2788,57.9624613003096,25.0
2789,57.87054953560372,25.0
2790,58.30592105263158,25.0
2791,59.06540247678019,25.0
2792,57.149767801857585,25.0
2793,56.109713622291025,25.0
2794,59.00251547987616,25.0
2795,59.80553405572756,25.0
2796,58.2140092879257,25.0
2797,57.5125773993808,25.0
2798,56.071013931888544,25.0
2799,59.13796439628483,25.0
2800,57.19330495356037,25.0
2801,62.79024767801857,25.0
2802,58.484907120743024,25.0
2803,59.268575851393194,25.0
2804,58.65421826625387,25.0
2805,58.00116099071208,25.0
2806,55.35990712074303,25.0
2807,56.12422600619194,25.0
2808,57.12074303405572,25.0
2809,60.323142414860676,25.0
2810,62.33068885448915,25.0
2811,55.21478328173375,25.0
2812,57.27554179566564,25.0
2813,58.92995356037152,25.0
2814,54.17956656346749,25.0
2815,59.74264705882353,25.0
2816,58.54779411764705,25.0
2817,59.04121517027864,25.0
2818,57.638351393188856,25.0
2819,58.94930340557276,25.0
2820,61.61958204334366,25.0
2821,56.075851393188856,25.0
2822,58.52360681114551,25.0
2823,60.927825077399376,25.0
2824,59.23471362229102,25.0
2825,57.92859907120743,25.0
2826,54.731037151702786,25.0
2827,57.517414860681114,25.0
2828,58.15595975232198,25.0
2829,58.441369969040245,25.0
2830,58.78966718266254,25.0
2831,58.015673374613,25.0
2832,57.09171826625387,25.0
2833,57.83184984520123,25.0
2834,59.39434984520123,25.0
2835,61.12616099071207,25.0
2836,58.630030959752325,25.0
2837,58.80417956656347,25.0
2838,56.9078947368421,25.0
2839,60.2312306501548,25.0
2840,53.816756965944265,25.0
2841,58.42685758513932,25.0
2842,58.18498452012385,25.0
2843,60.59404024767803,25.0
2844,61.41157120743034,25.0
2845,55.73239164086687,25.0
2846,56.67569659442725,25.0
2847,59.22987616099072,25.0
2848,61.72116873065016,25.0
2849,59.36532507739938,25.0
2850,59.64589783281734,25.0
2851,61.19388544891641,25.0
2852,56.699883900928796,25.0
2853,56.78695820433436,25.0
2854,55.601780185758514,25.0
2855,56.26451238390092,25.0
2856,57.58997678018576,25.0
2857,55.15189628482972,25.0
2858,58.53811919504644,25.0
2859,62.62577399380805,25.0
2860,57.72542569659442,25.0
2861,56.43866099071208,25.0
2862,57.89473684210526,25.0
2863,57.31907894736842,25.0
2864,57.198142414860676,25.0
2865,56.64667182662539,25.0
2866,61.25193498452012,25.0
2867,60.361842105263165,25.0
2868,56.661184210526315,25.0
2869,55.33088235294117,25.0
2870,55.25348297213622,25.0
2871,55.70820433436533,25.0
2872,56.903057275541805,25.0
2873,57.83184984520123,25.0
2874,59.49109907120743,25.0
2875,55.72755417956656,25.0
2876,60.87461300309598,25.0
2877,58.81385448916408,25.0
2878,55.28250773993808,25.0
2879,56.02747678018576,25.0
2880,58.238196594427244,25.0
2881,58.025348297213625,25.0
2882,59.51528637770897,25.0
2883,60.21188080495355,25.0
2884,59.29760061919505,25.0
2885,58.14628482972137,25.0
2886,58.010835913312704,25.0
2887,57.87538699690403,25.0
2888,54.74554953560372,25.0
2889,64.17376160990712,25.0
2890,56.898219814241486,25.0
2891,61.750193498452006,25.0
2892,53.937693498452006,25.0
2893,56.796633126934985,25.0
2894,56.70955882352941,25.0
2895,58.34462074303404,25.0
2896,58.272058823529406,25.0
2897,54.556888544891635,25.0
2898,58.43653250773994,25.0
2899,55.6936919504644,25.0
2900,59.73297213622292,25.0
2901,62.93537151702787,25.0
2902,56.58378482972136,25.0
2903,59.215363777089784,25.0
2904,56.71439628482972,25.0
2905,57.323916408668715,25.0
2906,59.345975232198136,25.0
2907,54.784249226006196,25.0
2908,58.21400928792569,25.0
2909,57.2078173374613,25.0
2910,58.562306501547994,25.0
2911,56.36126160990712,25.0
2912,56.63215944272446,25.0
2913,54.46013931888545,25.0
2914,58.305921052631575,25.0
2915,55.800116099071204,25.0
2916,58.57198142414861,25.0
2917,53.879643962848306,25.0
2918,56.63699690402478,25.0
2919,54.56172600619195,25.0
2920,63.153057275541805,25.0
2921,60.327979876160995,25.0
2922,53.24593653250774,25.0
2923,57.04334365325077,25.0
2924,58.68808049535604,25.0
2925,60.74400154798762,25.0
2926,56.36609907120743,25.0
2927,62.33552631578947,25.0
2928,60.75851393188856,25.0
2929,58.944465944272444,25.0
2930,57.42550309597524,25.0
2931,56.641834365325074,25.0
2932,54.15537925696594,25.0
2933,61.16002321981424,25.0
2934,56.75793343653251,25.0
2935,58.044698142414866,25.0
2936,58.702592879256954,25.0
2937,53.12500000000001,25.0
2938,52.86377708978329,25.0
2939,53.11048761609907,25.0
2940,57.454527863777095,25.0
2941,58.99284055727554,25.0
2942,59.63138544891641,25.0
2943,55.737229102167184,25.0
2944,55.887190402476776,25.0
2945,58.78482972136222,25.0
2946,57.55127708978328,25.0
2947,56.38544891640867,25.0
2948,57.23684210526316,25.0
2949,56.57894736842105,25.0
2950,62.24845201238389,25.0
2951,57.77863777089784,25.0
2952,58.36397058823529,25.0
2953,58.48006965944273,25.0
2954,56.825657894736835,25.0
2955,57.33359133126935,25.0
2956,54.86164860681115,25.0
2957,59.92647058823529,25.0
2958,57.067530959752325,25.0
2959,54.416602167182674,25.0
2960,62.55321207430341,25.0
2961,57.991486068111456,25.0
2962,58.6155185758514,25.0
2963,56.17743808049536,25.0
2964,59.91195820433437,25.0
2965,58.24787151702787,25.0
2966,58.18982198142414,25.0
2967,52.76702786377709,25.0
2968,54.66331269349845,25.0
2969,56.74342105263158,25.0
2970,54.61493808049536,25.0
2971,59.278250773993804,25.0
2972,55.54856811145511,25.0
2973,58.775154798761605,25.0
2974,59.51528637770898,25.0
2975,60.23606811145511,25.0
2976,60.06191950464396,25.0
2977,59.12828947368421,25.0
2978,55.180921052631575,25.0
2979,59.01702786377709,25.0
2980,61.276122291021665,25.0
2981,59.6797600619195,25.0
2982,55.577592879256976,25.0
2983,58.24303405572755,25.0
2984,55.71787925696595,25.0
2985,56.33223684210526,25.0
2986,56.037151702786375,25.0
2987,57.01915634674922,25.0
2988,58.10274767801858,25.0
2989,54.643962848297214,25.0
2990,57.56578947368422,25.0
2991,61.6969814241486,25.0
2992,55.06482198142414,25.0
2993,56.93691950464397,25.0
2994,56.757933436532504,25.0
2995,57.53192724458205,25.0
2996,59.8780959752322,25.0
2997,59.108939628482965,25.0
2998,58.4171826625387,25.0
2999,59.0218653250774,25.0
3000,53.9328560371517,25.0
3001,59.04121517027864,25.0
3002,56.56443498452012,25.0
3003,54.01993034055728,25.0
3004,54.929373065015476,25.0
3005,58.48006965944273,25.0
3006,59.32662538699691,25.0
3007,55.9984520123839,25.0
3008,57.14009287925697,25.0
3009,52.54450464396285,25.0
3010,59.76199690402477,25.0
3011,55.6985294117647,25.0
3012,59.820046439628484,25.0
3013,59.336300309597526,25.0
3014,56.54992260061919,25.0
3015,58.68808049535604,25.0
3016,59.97484520123839,25.0
3017,63.46749226006191,25.0
3018,56.49187306501548,25.0
3019,53.96671826625388,25.0
3020,56.786958204334375,25.0
3021,55.669504643962846,25.0
3022,59.568498452012385,25.0
3023,55.69852941176471,25.0
3024,57.34810371517027,25.0
3025,58.19465944272446,25.0
3026,59.9264705882353,25.0
3027,57.83668730650156,25.0
3028,56.81598297213622,25.0
3029,61.953366873065015,25.0
3030,59.56366099071208,25.0
3031,55.95975232198142,25.0
3032,58.12693498452012,25.0
3033,54.87616099071207,25.0
3034,59.70878482972137,25.0
3035,55.485681114551085,25.0
3036,57.788312693498455,25.0
3037,58.093072755417964,25.0
3038,61.12132352941177,25.0
3039,58.78966718266255,25.0
3040,60.69078947368422,25.0
3041,59.23955108359133,25.0
3042,54.96807275541796,25.0
3043,62.204914860681114,25.0
3044,61.04876160990712,25.0
3045,60.066756965944286,25.0
3046,61.232585139318886,25.0
3047,55.11319659442725,25.0
3048,61.64376934984519,25.0
3049,59.54431114551084,25.0
3050,51.80921052631579,25.0
3051,52.05108359133128,25.0
3052,59.936145510835914,25.0
3053,55.11803405572754,25.0
3054,58.64938080495356,25.0
3055,59.684597523219814,25.0
3056,58.2672213622291,25.0
3057,60.27960526315789,25.0
3058,58.262383900928796,25.0
3059,53.98606811145511,25.0
3060,59.162151702786375,25.0
3061,57.425503095975216,25.0
3062,57.07720588235295,25.0
3063,59.27825077399382,25.0
3064,57.25619195046439,25.0
3065,57.841524767801864,25.0
3066,60.961687306501545,25.0
3067,56.33707430340557,25.0
3068,55.04063467492259,25.0
3069,61.46962074303407,25.0
3070,56.64183436532508,25.0
3071,58.659055727554176,25.0
3072,56.75793343653251,25.0
3073,59.45239938080495,25.0
3074,57.067530959752325,25.0
3075,60.07643188854489,25.0
3076,58.27205882352942,25.0
3077,55.3937693498452,25.0
3078,56.12906346749226,25.0
3079,55.4953560371517,25.0
3080,56.83533281733746,25.0
3081,58.731617647058826,25.0
3082,62.83378482972136,25.0
3083,57.115905572755416,25.0
3084,56.607972136222905,25.0
3085,56.87886996904026,25.0
3086,55.74690402476781,25.0
3087,59.24922600619196,25.0
3088,52.79121517027863,25.0
3089,56.046826625387006,25.0
3090,57.89957430340557,25.0
3091,53.125,25.0
3092,57.48355263157895,25.0
3093,57.31424148606811,25.0
3094,58.717105263157904,25.0
3095,56.008126934984524,25.0
3096,60.74400154798761,25.0
3097,54.71652476780185,25.0
3098,61.57604489164087,25.0
3099,55.471168730650156,25.0
3100,60.100619195046434,25.0
3101,57.817337461300305,25.0
3102,56.70955882352941,25.0
3103,53.6764705882353,25.0
3104,61.895317337461314,25.0
3105,61.12132352941177,25.0
3106,58.80417956656346,25.0
3107,56.980456656346746,25.0
3108,57.83668730650155,25.0
3109,58.45588235294118,25.0
3110,55.180921052631575,25.0
3111,58.784829721362215,25.0
3112,52.65092879256966,25.0
3113,63.33204334365326,25.0
3114,53.59423374613004,25.0
3115,60.090944272445824,25.0
3116,57.18846749226006,25.0
3117,54.62461300309597,25.0
3118,61.76470588235294,25.0
3119,55.36474458204334,25.0
3120,60.06191950464397,25.0
3121,62.41292569659442,25.0
3122,58.48974458204334,25.0
3123,57.84636222910217,25.0
3124,53.46362229102167,25.0
3125,63.24496904024768,25.0
3126,60.19253095975232,25.0
3127,55.892027863777095,25.0
3128,60.61339009287925,25.0
3129,54.169891640866865,25.0
3130,52.259094427244584,25.0
3131,56.0516640866873,25.0
3132,54.49400154798761,25.0
3133,59.892608359133135,25.0
3134,60.35700464396285,25.0
3135,61.37287151702787,25.0
3136,58.77515479876161,25.0
3137,57.41099071207431,25.0
3138,59.83455882352941,25.0
3139,60.18285603715171,25.0
3140,55.384094427244584,25.0
3141,57.07720588235294,25.0
3142,60.574690402476776,25.0
3143,57.59481424148607,25.0
3144,55.71304179566564,25.0
3145,58.010835913312704,25.0
3146,65.05901702786376,25.0
3147,55.171246130030966,25.0
3148,58.59133126934984,25.0
3149,53.60390866873065,25.0
3150,55.50503095975233,25.0
3151,59.099264705882355,25.0
3152,59.815208978328165,25.0
3153,55.58726780185758,25.0
3154,57.652863777089784,25.0
3155,59.597523219814235,25.0
3156,59.602360681114554,25.0
3157,57.02399380804953,25.0
3158,59.3266253869969,25.0
3159,56.88854489164086,25.0
3160,57.31424148606811,25.0
3161,61.784055727554176,25.0
3162,56.08552631578947,25.0
3163,60.87461300309598,25.0
3164,58.98800309597522,25.0
3165,58.794504643962846,25.0
3166,61.44543343653251,25.0
3167,57.82701238390093,25.0
3168,62.47581269349844,25.0
3169,56.81114551083591,25.0
3170,58.683243034055735,25.0
3171,55.887190402476776,25.0
3172,53.50715944272446,25.0
3173,55.48568111455109,25.0
3174,57.5609520123839,25.0
3175,61.774380804953566,25.0
3176,57.84152476780186,25.0
3177,54.52786377708979,25.0
3178,56.68537151702786,25.0
3179,58.659055727554176,25.0
3180,58.45104489164086,25.0
3181,57.50290247678019,25.0
3182,62.291989164086694,25.0
3183,62.475812693498455,25.0
3184,57.672213622291025,25.0
3185,57.71091331269349,25.0
3186,57.34326625386996,25.0
3187,60.17801857585139,25.0
3188,55.877515479876166,25.0
3189,60.97619969040249,25.0
3190,59.34113777089783,25.0
3191,57.38196594427245,25.0
3192,61.58571981424149,25.0
3193,58.00116099071208,25.0
3194,58.92995356037153,25.0
3195,58.03502321981424,25.0
3196,54.3827399380805,25.0
3197,58.871904024767794,25.0
3198,58.257546439628484,25.0
3199,57.37712848297214,25.0
3200,57.52708978328173,25.0
3201,56.01296439628483,25.0
3202,58.673568111455104,25.0
3203,56.06133900928792,25.0
3204,54.7358746130031,25.0
3205,54.91486068111455,25.0
3206,61.09713622291021,25.0
3207,55.41795665634674,25.0
3208,60.995549535603715,25.0
3209,58.117260061919495,25.0
3210,60.724651702786375,25.0
3211,61.87596749226006,25.0
3212,61.10197368421053,25.0
3213,59.00735294117648,25.0
3214,59.78618421052631,25.0
3215,59.67008513931889,25.0
3216,57.82701238390093,25.0
3217,57.5609520123839,25.0
3218,60.26509287925696,25.0
3219,53.49748452012384,25.0
3220,57.420665634674926,25.0
3221,59.71362229102167,25.0
3222,60.545665634674926,25.0
3223,59.22020123839009,25.0
3224,60.8891253869969,25.0
3225,57.34326625386996,25.0
3226,55.306695046439636,25.0
3227,56.17743808049535,25.0
3228,56.695046439628484,25.0
3229,57.836687306501545,25.0
3230,54.223103715170275,25.0
3231,58.14628482972136,25.0
3232,59.65557275541796,25.0
3233,60.124806501547994,25.0
3234,57.59481424148606,25.0
3235,56.288699690402474,25.0
3236,61.67279411764706,25.0
3237,58.2140092879257,25.0
3238,56.322561919504636,25.0
3239,57.164280185758514,25.0
3240,56.29353715170278,25.0
3241,57.03850619195046,25.0
3242,56.63215944272446,25.0
3243,56.815982972136226,25.0
3244,55.71304179566563,25.0
3245,56.075851393188856,25.0
3246,58.57198142414862,25.0
3247,56.83533281733746,25.0
3248,58.07372291021673,25.0
3249,59.05572755417956,25.0
3250,54.73587461300309,25.0
3251,57.00464396284831,25.0
3252,58.58649380804954,25.0
3253,58.42202012383901,25.0
3254,58.18014705882353,25.0
3255,58.18014705882353,25.0
3256,56.8014705882353,25.0
3257,60.82623839009288,25.0
3258,55.350232198142415,25.0
3259,56.16776315789473,25.0
3260,57.6625386996904,25.0
3261,54.61493808049535,25.0
3262,60.13448142414861,25.0
3263,61.79373065015481,25.0
3264,58.63486842105263,25.0
3265,60.676277089783284,25.0
3266,55.81946594427245,25.0
3267,58.76064241486068,25.0
3268,57.97697368421053,25.0
3269,58.55263157894736,25.0
3270,57.12558049535603,25.0
3271,56.8014705882353,25.0
3272,58.538119195046455,25.0
3273,56.10487616099071,25.0
3274,57.856037151702786,25.0
3275,62.475812693498455,25.0
3276,57.9092492260062,25.0
3277,57.08688080495356,25.0
3278,56.893382352941174,25.0
3279,55.369582043343655,25.0
3280,56.59829721362229,25.0
3281,58.48490712074303,25.0
3282,60.58920278637771,25.0
3283,58.63003095975233,25.0
3284,59.05089009287925,25.0
3285,57.79315015479876,25.0
3286,62.37422600619195,25.0
3287,58.054373065015476,25.0
3288,53.91350619195046,25.0
3289,58.93479102167183,25.0
3290,56.211300309597526,25.0
3291,58.910603715170275,25.0
3292,57.75445046439628,25.0
3293,60.86010061919505,25.0
3294,58.01083591331269,25.0
3295,58.61551857585139,25.0
3296,62.65479876160992,25.0
3297,58.857391640866865,25.0
3298,52.29779411764706,25.0
3299,56.74825851393189,25.0
3300,59.53463622291022,25.0
3301,56.83533281733747,25.0
3302,56.864357585139324,25.0
3303,59.732972136222905,25.0
3304,59.49593653250774,25.0
3305,55.147058823529406,25.0
3306,56.26934984520124,25.0
3307,58.61068111455108,25.0
3308,59.13796439628483,25.0
3309,58.81385448916409,25.0
3310,56.83049535603715,25.0
3311,58.82352941176471,25.0
3312,58.95414086687307,25.0
3313,61.924342105263165,25.0
3314,60.39570433436532,25.0
3315,59.118614551083574,25.0
3316,57.41582817337461,25.0
3317,58.910603715170275,25.0
3318,59.060565015479874,25.0
3319,58.625193498452006,25.0
3320,56.64667182662538,25.0
3321,53.79740712074304,25.0
3322,60.34732972136223,25.0
3323,56.2983746130031,25.0
3324,57.22232972136223,25.0
3325,58.29140866873065,25.0
3326,56.10487616099071,25.0
3327,60.37635448916409,25.0
3328,57.04818111455109,25.0
3329,59.22987616099072,25.0
3330,57.952786377708975,25.0
3331,58.900928792569665,25.0
3332,62.31133900928791,25.0
3333,61.70181888544892,25.0
3334,58.51393188854488,25.0
3335,58.320433436532504,25.0
3336,58.02051083591331,25.0
3337,58.38332043343652,25.0
3338,60.879450464396285,25.0
3339,56.6515092879257,25.0
3340,62.43711300309598,25.0
3341,55.89686532507739,25.0
3342,55.7469040247678,25.0
3343,56.44833591331269,25.0
3344,58.99284055727554,25.0
3345,58.344620743034056,25.0
3346,57.7109133126935,25.0
3347,59.215363777089784,25.0
3348,59.71845975232198,25.0
3349,59.41369969040248,25.0
3350,53.64744582043344,25.0
3351,56.878869969040245,25.0
3352,56.98045665634674,25.0
3353,58.66389318885449,25.0
3354,60.6811145510836,25.0
3355,58.223684210526315,25.0
3356,61.7985681114551,25.0
3357,57.2078173374613,25.0
3358,60.02805727554179,25.0
3359,56.83049535603716,25.0
3360,57.66737616099071,25.0
3361,60.395704334365334,25.0
3362,61.67279411764706,25.0
3363,55.26799535603715,25.0
3364,58.581656346749234,25.0
3365,54.76006191950464,25.0
3366,55.93556501547988,25.0
3367,55.61145510835913,25.0
3368,65.82333591331269,25.0
3369,60.58920278637771,25.0
3370,56.89338235294117,25.0
3371,58.02534829721362,25.0
3372,64.20278637770897,25.0
3373,57.41099071207431,25.0
3374,53.60874613003096,25.0
3375,58.76064241486068,25.0
3376,59.147639318885446,25.0
3377,58.7703173374613,25.0
3378,56.32739938080495,25.0
3379,59.670085139318886,25.0
3380,57.178792569659436,25.0
3381,57.096555727554176,25.0
3382,62.195239938080476,25.0
3383,59.60719814241485,25.0
3384,60.86977554179566,25.0
3385,58.639705882352935,25.0
3386,56.30321207430341,25.0
3387,58.33494582043345,25.0
3388,55.959752321981426,25.0
3389,60.4295665634675,25.0
3390,56.656346749226,25.0
3391,55.70820433436532,25.0
3392,58.33494582043343,25.0
3393,60.41021671826625,25.0
3394,61.38254643962848,25.0
3395,63.530379256965944,25.0
3396,57.40615325077399,25.0
3397,55.55824303405572,25.0
3398,57.69156346749226,25.0
3399,59.86842105263158,25.0
3400,65.83301083591333,25.0
3401,61.03424922600619,25.0
3402,58.093072755417964,25.0
3403,57.604489164086694,25.0
3404,57.87538699690402,25.0
3405,54.34887770897833,25.0
3406,59.59752321981424,25.0
3407,57.74961300309598,25.0
3408,58.24787151702786,25.0
3409,59.71362229102167,25.0
3410,55.14222136222911,25.0
3411,62.50967492260061,25.0
3412,61.61474458204334,25.0
3413,60.54082817337461,25.0
3414,58.88641640866873,25.0
3415,61.06811145510836,25.0
3416,62.94020897832817,25.0
3417,55.25832043343653,25.0
3418,58.08339783281734,25.0
3419,58.70259287925697,25.0
3420,59.16215170278638,25.0
3421,54.75038699690402,25.0
3422,57.7109133126935,25.0
3423,56.554760061919495,25.0
3424,56.63699690402477,25.0
3425,56.153250773993804,25.0
3426,60.74400154798761,25.0
3427,54.94872291021672,25.0
3428,57.111068111455104,25.0
3429,58.19465944272446,25.0
3430,58.67356811145512,25.0
3431,61.06327399380804,25.0
3432,56.356424148606806,25.0
3433,53.192724458204324,25.0
3434,57.45936532507739,25.0
3435,53.99574303405573,25.0
3436,58.847716718266255,25.0
3437,60.52147832817338,25.0
3438,55.32604489164086,25.0
3439,55.72271671826625,25.0
3440,57.1546052631579,25.0
3441,52.65576625386997,25.0
3442,57.53192724458205,25.0
3443,53.64744582043344,25.0
3444,54.494001547987615,25.0
3445,58.784829721362236,25.0
3446,57.64318885448916,25.0
3447,57.04334365325078,25.0
3448,61.784055727554176,25.0
3449,54.900348297213625,25.0
3450,59.19601393188854,25.0
3451,52.90247678018576,25.0
3452,60.89396284829721,25.0
3453,61.13099845201239,25.0
3454,58.44136996904025,25.0
3455,55.67917956656346,25.0
3456,59.650735294117645,25.0
3457,57.72542569659443,25.0
3458,56.84500773993808,25.0
3459,54.65847523219815,25.0
3460,54.46013931888545,25.0
3461,53.570046439628484,25.0
3462,56.08552631578947,25.0
3463,56.709558823529406,25.0
3464,58.76064241486068,25.0
3465,61.532507739938076,25.0
3466,57.27554179566564,25.0
3467,59.099264705882355,25.0
3468,57.5077399380805,25.0
3469,60.27960526315789,25.0
3470,60.34732972136223,25.0
3471,58.54295665634676,25.0
3472,60.74400154798761,25.0
3473,56.86919504643963,25.0
3474,58.88641640866873,25.0
3475,59.29276315789474,25.0
3476,58.79450464396285,25.0
3477,56.9078947368421,25.0
3478,52.902476780185765,25.0
3479,61.07294891640868,25.0
3480,55.99361455108359,25.0
3481,55.887190402476776,25.0
3482,59.76683436532508,25.0
3483,58.363970588235304,25.0
3484,57.367453560371516,25.0
3485,58.562306501547994,25.0
3486,55.75657894736842,25.0
3487,58.19465944272446,25.0
3488,58.025348297213625,25.0
3489,56.632159442724465,25.0
3490,56.90789473684211,25.0
3491,57.61900154798761,25.0
3492,57.2078173374613,25.0
3493,54.556888544891635,25.0
3494,56.254837461300305,25.0
3495,61.55669504643962,25.0
3496,55.90654024767802,25.0
3497,58.097910216718276,25.0
3498,57.1594427244582,25.0
3499,61.43092105263158,25.0
3500,56.022639318885446,25.0
3501,62.78541021671826,25.0
3502,61.42608359133128,25.0
3503,59.15731424148607,25.0
3504,58.00599845201239,25.0
3505,60.73432662538701,25.0
3506,54.94388544891641,25.0
3507,57.783475232198136,25.0
3508,58.59616873065016,25.0
3509,58.475232198142415,25.0
3510,59.950657894736835,25.0
3511,55.113196594427244,25.0
3512,59.142801857585134,25.0
3513,60.303792569659436,25.0
3514,57.49806501547988,25.0
3515,60.158668730650156,25.0
3516,56.02747678018575,25.0
3517,61.77921826625387,25.0
3518,57.149767801857585,25.0
3519,56.932082043343655,25.0
3520,52.35584365325079,25.0
3521,58.11726006191951,25.0
3522,60.835913312693506,25.0
3523,55.06482198142416,25.0
3524,56.57894736842105,25.0
3525,56.6031346749226,25.0
3526,59.83939628482972,25.0
3527,59.19601393188855,25.0
3528,60.342492260061924,25.0
3529,54.27147832817337,25.0
3530,58.24303405572756,25.0
3531,58.339783281733745,25.0
3532,59.263738390092875,25.0
3533,59.510448916408656,25.0
3534,55.40828173374614,25.0
3535,54.614938080495364,25.0
3536,57.918924148606806,25.0
3537,57.63351393188855,25.0
3538,61.26644736842104,25.0
3539,59.7281346749226,25.0
3540,62.02109133126935,25.0
3541,55.23413312693498,25.0
3542,58.562306501547994,25.0
3543,53.57972136222911,25.0
3544,60.14415634674923,25.0
3545,54.67782507739939,25.0
3546,53.773219814241486,25.0
3547,60.608552631578945,25.0
3548,55.63080495356038,25.0
3549,59.00735294117647,25.0
3550,54.89551083591331,25.0
3551,57.551277089783284,25.0
3552,61.987229102167184,25.0
3553,62.04527863777089,25.0
3554,61.07778637770898,25.0
3555,59.486261609907125,25.0
3556,58.48490712074303,25.0
3557,54.92453560371518,25.0
3558,54.890673374613,25.0
3559,60.037732198142415,25.0
3560,61.179373065015476,25.0
3561,56.859520123839005,25.0
3562,58.04469814241486,25.0
3563,63.124032507739955,25.0
3564,57.89957430340557,25.0
3565,52.64125386996904,25.0
3566,61.29547213622292,25.0
3567,58.257546439628484,25.0
3568,54.67298761609907,25.0
3569,58.99284055727554,25.0
3570,60.76335139318886,25.0
3571,56.75793343653251,25.0
3572,60.652089783281724,25.0
3573,58.378482972136226,25.0
3574,61.84210526315789,25.0
3575,61.41640866873065,25.0
3576,61.08262383900929,25.0
3577,56.046826625387,25.0
3578,60.874613003095966,25.0
3579,58.86222910216719,25.0
3580,60.207043343653254,25.0
3581,56.598297213622295,25.0
3582,57.3577786377709,25.0
3583,61.309984520123834,25.0
3584,54.440789473684205,25.0
3585,54.140866873065015,25.0
3586,62.045278637770906,25.0
3587,57.12558049535603,25.0
3588,54.29566563467492,25.0
3589,56.90789473684211,25.0
3590,59.06056501547988,25.0
3591,58.86222910216718,25.0
3592,58.41234520123839,25.0
3593,60.69562693498451,25.0
3594,58.736455108359145,25.0
3595,59.13796439628483,25.0
3596,60.1296439628483,25.0
3597,53.574883900928796,25.0
3598,56.37577399380805,25.0
3599,58.88641640866874,25.0
3600,59.36532507739939,25.0
3601,58.75580495356037,25.0
3602,58.02051083591331,25.0
3603,55.940402476780186,25.0
3604,57.06753095975233,25.0
3605,57.362616099071204,25.0
3606,60.13448142414861,25.0
3607,55.87267801857585,25.0
3608,56.66118421052632,25.0
3609,59.22987616099071,25.0
3610,58.91060371517028,25.0
3611,57.9624613003096,25.0
3612,55.050309597523224,25.0
3613,59.331462848297214,25.0
3614,58.93962848297215,25.0
3615,60.86493808049536,25.0
3616,56.898219814241486,25.0
3617,57.89957430340558,25.0
3618,59.06540247678019,25.0
3619,53.28463622291022,25.0
3620,57.57062693498452,25.0
3621,55.011609907120736,25.0
3622,54.01509287925697,25.0
3623,58.963815789473685,25.0
3624,62.238777089783284,25.0
3625,54.52786377708978,25.0
3626,58.925116099071204,25.0
3627,59.8829334365325,25.0
3628,55.97910216718265,25.0
3629,58.09307275541796,25.0
3630,58.363970588235304,25.0
3631,58.741292569659436,25.0
3632,55.22929566563467,25.0
3633,63.79643962848295,25.0
3634,57.97697368421053,25.0
3635,52.90247678018576,25.0
3636,56.70472136222911,25.0
3637,59.5733359133127,25.0
3638,57.03366873065015,25.0
3639,57.4593653250774,25.0
3640,60.11029411764705,25.0
3641,60.03289473684211,25.0
3642,57.918924148606806,25.0
3643,56.50638544891641,25.0
3644,57.40131578947369,25.0
3645,58.871904024767794,25.0
3646,59.19601393188855,25.0
3647,55.355069659442734,25.0
3648,56.24516253869969,25.0
3649,58.6203560371517,25.0
3650,57.16428018575851,25.0
3651,56.28386222910216,25.0
3652,54.31017801857585,25.0
3653,61.31965944272446,25.0
3654,57.715750773993804,25.0
3655,58.87674148606811,25.0
3656,56.16776315789473,25.0
3657,56.8063080495356,25.0
3658,54.01025541795665,25.0
3659,59.636222910216716,25.0
3660,57.420665634674926,25.0
3661,57.822174922600624,25.0
3662,59.21536377708979,25.0
3663,59.87325851393189,25.0
3664,54.98258513931889,25.0
3665,59.94098297213622,25.0
3666,56.43382352941177,25.0
3667,59.54914860681113,25.0
3668,56.23548761609907,25.0
3669,54.79876160990711,25.0
3670,59.62654798761609,25.0
3671,58.50425696594427,25.0
3672,62.73703560371517,25.0
3673,56.38544891640868,25.0
3674,60.62306501547988,25.0
3675,57.82217492260061,25.0
3676,54.43595201238389,25.0
3677,56.86919504643963,25.0
3678,58.25270897832818,25.0
3679,60.047407120743046,25.0
3680,61.280959752321984,25.0
3681,60.052244582043336,25.0
3682,63.26431888544892,25.0
3683,52.62190402476781,25.0
3684,58.24303405572756,25.0
3685,60.09578173374613,25.0
3686,54.7890866873065,25.0
3687,56.859520123839005,25.0
3688,58.7171052631579,25.0
3689,57.54160216718266,25.0
3690,58.75096749226005,25.0
3691,59.65557275541796,25.0
3692,57.440015479876166,25.0
3693,53.40557275541795,25.0
3694,59.37016253869969,25.0
3695,57.251354489164086,25.0
3696,57.38680340557275,25.0
3697,58.67356811145511,25.0
3698,58.557469040247675,25.0
3699,54.94872291021672,25.0
3700,57.89957430340558,25.0
3701,60.352167182662534,25.0
3702,55.65499226006192,25.0
3703,57.20297987616099,25.0
3704,61.50832043343653,25.0
3705,61.179373065015476,25.0
3706,56.11938854489164,25.0
3707,60.1828560371517,25.0
3708,56.056501547987615,25.0
3709,58.89125386996905,25.0
3710,54.76489938080495,25.0
3711,53.42008513931889,25.0
3712,63.31753095975232,25.0
3713,57.6141640866873,25.0
3714,65.218653250774,25.0
3715,57.47871517027864,25.0
3716,57.37712848297214,25.0
3717,57.87538699690402,25.0
3718,56.36609907120742,25.0
3719,54.440789473684205,25.0
3720,60.48277863777089,25.0
3721,56.63699690402476,25.0
3722,60.197368421052644,25.0
3723,57.710913312693506,25.0
3724,60.94717492260061,25.0
3725,55.650154798761605,25.0
3726,59.63622291021673,25.0
3727,57.72542569659443,25.0
3728,60.453753869969034,25.0
3729,54.281153250774004,25.0
3730,58.18498452012384,25.0
3731,58.68808049535603,25.0
3732,55.96458978328173,25.0
3733,55.12287151702787,25.0
3734,59.49109907120743,25.0
3735,58.64938080495356,25.0
3736,56.73858359133126,25.0
3737,57.55127708978328,25.0
3738,58.925116099071204,25.0
3739,59.50561145510836,25.0
3740,59.48142414860681,25.0
3741,59.20085139318886,25.0
3742,59.650735294117645,25.0
3743,58.58165634674923,25.0
3744,55.15673374613004,25.0
3745,56.99496904024767,25.0
3746,61.15518575851394,25.0
3747,57.44485294117647,25.0
3748,57.39164086687307,25.0
3749,52.74284055727554,25.0
3750,62.074303405572756,25.0
3751,53.115325077399376,25.0
3752,57.78347523219814,25.0
3753,54.150541795665646,25.0
3754,59.20085139318885,25.0
3755,59.2734133126935,25.0
3756,57.21749226006192,25.0
3757,58.91544117647059,25.0
3758,57.74477554179566,25.0
3759,58.567143962848284,25.0
3760,58.72194272445821,25.0
3761,58.43169504643963,25.0
3762,61.1938854489164,25.0
3763,58.21884674922601,25.0
3764,57.29489164086687,25.0
3765,58.925116099071204,25.0
3766,55.58243034055727,25.0
3767,60.08126934984521,25.0
3768,60.308630030959755,25.0
3769,61.95336687306502,25.0
3770,58.43169504643963,25.0
3771,57.54160216718267,25.0
3772,57.61900154798762,25.0
3773,59.389512383900936,25.0
3774,54.02960526315789,25.0
3775,57.71575077399381,25.0
3776,59.703947368421055,25.0
3777,59.76683436532508,25.0
3778,60.56017801857586,25.0
3779,57.24651702786377,25.0
3780,62.703173374613,25.0
3781,57.65286377708976,25.0
3782,58.19465944272446,25.0
3783,57.49806501547988,25.0
3784,58.77515479876161,25.0
3785,53.63293343653251,25.0
3786,53.700657894736835,25.0
3787,58.0108359133127,25.0
3788,58.05921052631579,25.0
3789,61.44543343653251,25.0
3790,59.63138544891641,25.0
3791,57.34810371517028,25.0
3792,56.41447368421053,25.0
3793,59.12828947368422,25.0
3794,58.63970588235294,25.0
3795,61.67279411764707,25.0
3796,58.63970588235294,25.0
3797,58.43653250773994,25.0
3798,58.25754643962848,25.0
3799,54.09732972136222,25.0
3800,57.05301857585139,25.0
3801,59.13796439628483,25.0
3802,53.4345975232198,25.0
3803,57.62867647058823,25.0
3804,62.238777089783284,25.0
3805,57.90924922600619,25.0
3806,56.18227554179567,25.0
3807,54.21826625386998,25.0
3808,56.55959752321982,25.0
3809,56.12422600619195,25.0
3810,59.49593653250774,25.0
3811,58.5671439628483,25.0
3812,59.96033281733746,25.0
3813,60.62306501547988,25.0
3814,52.38003095975232,25.0
3815,62.838622291021665,25.0
3816,53.34268575851393,25.0
3817,58.40750773993808,25.0
3818,58.881578947368425,25.0
3819,56.656346749225996,25.0
3820,56.42414860681115,25.0
3821,54.058630030959755,25.0
3822,55.529218266253864,25.0
3823,57.55611455108359,25.0
3824,56.37093653250774,25.0
3825,57.04334365325078,25.0
3826,61.261609907120736,25.0
3827,58.65905572755418,25.0
3828,58.044698142414866,25.0
3829,55.41311919504644,25.0
3830,58.50909442724458,25.0
3831,59.771671826625386,25.0
3832,58.112422600619205,25.0
3833,60.72465170278639,25.0
3834,55.882352941176464,25.0
3835,58.954140866873054,25.0
3836,54.01025541795664,25.0
3837,57.79315015479875,25.0
3838,58.88157894736842,25.0
3839,57.62867647058824,25.0
3840,59.97000773993808,25.0
3841,57.53676470588236,25.0
3842,54.063467492260045,25.0
3843,62.05011609907121,25.0
3844,59.22987616099071,25.0
3845,55.6985294117647,25.0
3846,58.7703173374613,25.0
3847,64.33339783281733,25.0
3848,56.216137770897824,25.0
3849,61.01006191950464,25.0
3850,56.56927244582044,25.0
3851,61.953366873065015,25.0
3852,56.91273219814242,25.0
3853,57.00464396284829,25.0
3854,59.40886222910217,25.0
3855,58.460719814241486,25.0
3856,56.34674922600619,25.0
3857,57.91408668730651,25.0
3858,55.76141640866872,25.0
3859,56.72890866873065,25.0
3860,60.51664086687306,25.0
3861,56.477360681114554,25.0
3862,57.5125773993808,25.0
3863,57.84152476780186,25.0
3864,58.257546439628484,25.0
3865,61.116486068111456,25.0
3866,55.96458978328174,25.0
3867,56.39512383900929,25.0
3868,55.06965944272446,25.0
3869,62.195239938080476,25.0
3870,61.06327399380805,25.0
3871,59.16215170278638,25.0
3872,60.46826625386996,25.0
3873,54.64396284829722,25.0
3874,61.271284829721374,25.0
3875,57.06753095975232,25.0
3876,55.374419504643974,25.0
3877,59.0750773993808,25.0
3878,51.74148606811145,25.0
3879,57.78831269349846,25.0
3880,56.211300309597526,25.0
3881,54.79392414860681,25.0
3882,61.15518575851394,25.0
3883,54.682662538699695,25.0
3884,57.328753869969034,25.0
3885,55.548568111455104,25.0
3886,57.546439628482965,25.0
3887,59.02186532507739,25.0
3888,53.59423374613003,25.0
3889,57.56095201238389,25.0
3890,53.173374613003105,25.0
3891,58.50425696594427,25.0
3892,59.43304953560372,25.0
3893,58.09307275541795,25.0
3894,60.608552631578945,25.0
3895,60.74400154798761,25.0
3896,61.11648606811147,25.0
3897,61.06327399380805,25.0
3898,60.98103715170279,25.0
3899,58.494582043343655,25.0
3900,59.40402476780186,25.0
3901,60.85042569659442,25.0
3902,59.32662538699691,25.0
3903,55.132546439628484,25.0
3904,54.97291021671827,25.0
3905,58.86706656346749,25.0
3906,54.69233746130032,25.0
3907,57.522252321981426,25.0
3908,59.196013931888544,25.0
3909,55.12770897832818,25.0
3910,54.65363777089783,25.0
3911,53.942530959752325,25.0
3912,56.97078173374613,25.0
3913,54.735874613003105,25.0
3914,63.104682662538714,25.0
3915,56.41447368421052,25.0
3916,59.59752321981425,25.0
3917,54.392414860681114,25.0
3918,57.07720588235295,25.0
3919,58.05437306501548,25.0
3920,63.58842879256967,25.0
3921,63.86900154798762,25.0
3922,58.55746904024767,25.0
3923,58.678405572755416,25.0
3924,54.32952786377708,25.0
3925,58.983165634674926,25.0
3926,62.5,25.0
3927,59.568498452012385,25.0
3928,56.30321207430341,25.0
3929,57.43517801857585,25.0
3930,59.500773993808046,25.0
3931,57.75928792569658,25.0
3932,56.994969040247675,25.0
3933,58.72194272445821,25.0
3934,58.52360681114551,25.0
3935,59.200851393188856,25.0
3936,54.89551083591331,25.0
3937,57.304566563467496,25.0
3938,57.140092879256976,25.0
3939,59.35565015479876,25.0
3940,61.987229102167184,25.0
3941,56.49671052631579,25.0
3942,55.959752321981426,25.0
3943,56.83533281733746,25.0
3944,59.505611455108365,25.0
3945,58.19465944272446,25.0
3946,58.214009287925705,25.0
3947,59.404024767801864,25.0
3948,59.370162538699695,25.0
3949,55.398606811145505,25.0
3950,56.80630804953561,25.0
3951,57.82701238390092,25.0
3952,55.20994582043344,25.0
3953,58.80901702786378,25.0
3954,55.95975232198141,25.0
3955,54.25212848297214,25.0
3956,58.17530959752321,25.0
3957,57.565789473684205,25.0
3958,54.358552631578945,25.0
3959,59.670085139318886,25.0
3960,58.06888544891641,25.0
3961,57.6625386996904,25.0
3962,60.10061919504644,25.0
3963,58.697755417956664,25.0
3964,57.78831269349846,25.0
3965,59.49109907120743,25.0
3966,63.54005417956655,25.0
3967,57.46420278637771,25.0
3968,58.72678018575852,25.0
3969,56.27902476780185,25.0
3970,60.70046439628483,25.0
3971,55.76141640866873,25.0
3972,58.978328173374614,25.0
3973,57.45936532507739,25.0
3974,59.97484520123839,25.0
3975,56.93691950464397,25.0
3976,59.6797600619195,25.0
3977,55.47600619195047,25.0
3978,60.80688854489164,25.0
3979,56.206462848297214,25.0
3980,58.325270897832816,25.0
3981,55.32604489164087,25.0
3982,61.78889318885449,25.0
3983,54.81327399380805,25.0
3984,56.206462848297214,25.0
3985,61.895317337461314,25.0
3986,59.868421052631575,25.0
3987,56.13873839009288,25.0
3988,56.196787925696604,25.0
3989,58.82836687306502,25.0
3990,56.26934984520123,25.0
3991,52.61222910216718,25.0
3992,60.24574303405572,25.0
3993,61.595394736842124,25.0
3994,60.51180340557274,25.0
3995,52.43324303405572,25.0
3996,55.65015479876161,25.0
3997,60.73916408668732,25.0
3998,56.119388544891635,25.0
3999,60.627902476780186,25.0
4000,57.3577786377709,25.0
4001,57.88022445820434,25.0
4002,58.446207430340564,25.0
4003,58.95897832817338,25.0
4004,56.2016253869969,25.0
4005,60.5359907120743,25.0
4006,59.887770897832816,25.0
4007,59.01702786377709,25.0
4008,59.36048761609907,25.0
4009,54.45530185758515,25.0
4010,57.77863777089784,25.0
4011,62.51451238390092,25.0
4012,56.893382352941174,25.0
4013,63.3078560371517,25.0
4014,54.77457430340557,25.0
4015,53.43943498452012,25.0
4016,60.652089783281724,25.0
4017,59.36048761609908,25.0
4018,61.160023219814256,25.0
4019,56.525735294117645,25.0
4020,61.97755417956657,25.0
4021,56.9030572755418,25.0
4022,53.66195820433437,25.0
4023,56.27902476780186,25.0
4024,58.117260061919495,25.0
4025,58.204334365325074,25.0
4026,59.20085139318886,25.0
4027,57.39164086687306,25.0
4028,58.712267801857585,25.0
4029,60.15866873065016,25.0
4030,56.61764705882353,25.0
4031,53.94253095975232,25.0
4032,61.488970588235304,25.0
4033,55.800116099071204,25.0
4034,60.58920278637771,25.0
4035,60.19736842105262,25.0
4036,56.936919504643974,25.0
4037,61.78889318885449,25.0
4038,56.08552631578948,25.0
4039,53.75870743034055,25.0
4040,53.023413312693485,25.0
4041,58.55263157894736,25.0
4042,60.51664086687306,25.0
4043,52.98955108359133,25.0
4044,62.27263931888544,25.0
4045,53.87480650154799,25.0
4046,52.29779411764706,25.0
4047,57.66737616099071,25.0
4048,60.386029411764696,25.0
4049,59.549148606811144,25.0
4050,56.25967492260061,25.0
4051,57.23684210526317,25.0
4052,60.81172600619196,25.0
4053,57.294891640866865,25.0
4054,58.93479102167183,25.0
4055,56.71923374613004,25.0
4056,59.631385448916404,25.0
4057,56.71923374613003,25.0
4058,59.26373839009289,25.0
4059,57.889899380804955,25.0
4060,61.71633126934984,25.0
4061,59.27825077399381,25.0
4062,56.58862229102167,25.0
4063,53.149187306501545,25.0
4064,56.16292569659443,25.0
4065,57.01915634674922,25.0
4066,56.86919504643962,25.0
4067,59.49593653250774,25.0
4068,56.898219814241486,25.0
4069,54.053792569659436,25.0
4070,60.661764705882355,25.0
4071,62.504837461300305,25.0
4072,56.095201238390096,25.0
4073,62.08881578947368,25.0
4074,59.55882352941177,25.0
4075,62.16621517027864,25.0
4076,52.76702786377709,25.0
4077,60.00870743034056,25.0
4078,56.9030572755418,25.0
4079,59.39918730650155,25.0
4080,55.940402476780186,25.0
4081,56.14357585139319,25.0
4082,54.102167182662534,25.0
4083,60.00386996904025,25.0
4084,59.665247678018574,25.0
4085,58.968653250774,25.0
4086,59.670085139318886,25.0
4087,55.13254643962847,25.0
4088,59.878095975232185,25.0
4089,57.90441176470589,25.0
4090,56.69504643962848,25.0
4091,58.68324303405572,25.0
4092,54.51818885448917,25.0
4093,55.70336687306501,25.0
4094,59.03637770897833,25.0
4095,59.96033281733746,25.0
4096,57.164280185758514,25.0
4097,56.67569659442726,25.0
4098,57.37712848297213,25.0
4099,58.630030959752325,25.0
4100,56.646671826625386,25.0
4101,59.70878482972136,25.0
4102,59.031540247678016,25.0
4103,56.95626934984521,25.0
4104,58.073722910216716,25.0
4105,60.995549535603715,25.0
4106,56.564434984520126,25.0
4107,56.16776315789474,25.0
4108,61.06811145510836,25.0
4109,61.89047987616101,25.0
4110,57.0578560371517,25.0
4111,60.50696594427244,25.0
4112,58.68324303405572,25.0
4113,60.139318885448915,25.0
4114,58.99767801857584,25.0
4115,60.60371517027864,25.0
4116,60.5843653250774,25.0
4117,57.875386996904034,25.0
4118,52.641253869969034,25.0
4119,61.07294891640868,25.0
4120,54.818111455108365,25.0
4121,59.57817337461301,25.0
4122,56.36609907120743,25.0
4123,54.963235294117645,25.0
4124,56.77728328173375,25.0
4125,54.01025541795666,25.0
4126,56.98529411764705,25.0
4127,56.337074303405565,25.0
4128,58.910603715170275,25.0
4129,62.64512383900927,25.0
4130,62.437113003095966,25.0
4131,62.88215944272446,25.0
4132,58.33978328173374,25.0
4133,57.62867647058823,25.0
4134,59.37983746130031,25.0
4135,57.56095201238389,25.0
4136,59.76683436532508,25.0
4137,59.553986068111456,25.0
4138,58.06888544891642,25.0
4139,55.01160990712075,25.0
4140,59.805534055727556,25.0
4141,56.61764705882352,25.0
4142,59.839396284829725,25.0
4143,56.61764705882353,25.0
4144,52.8202399380805,25.0
4145,57.74961300309598,25.0
4146,62.03076625386998,25.0
4147,56.59345975232198,25.0
4148,59.95549535603715,25.0
4149,60.318304953560364,25.0
4150,58.0640479876161,25.0
4151,55.96458978328173,25.0
4152,59.76199690402476,25.0
4153,58.93962848297213,25.0
4154,59.263738390092875,25.0
4155,60.13931888544892,25.0
4156,56.36609907120743,25.0
4157,61.866292569659436,25.0
4158,59.926470588235304,25.0
4159,57.35294117647059,25.0
4160,58.75580495356038,25.0
4161,57.914086687306494,25.0
4162,59.09926470588235,25.0
4163,55.534055727554176,25.0
4164,53.72968266253871,25.0
4165,56.327399380804955,25.0
4166,59.254063467492266,25.0
4167,65.52341331269349,25.0
4168,58.320433436532504,25.0
4169,60.96652476780185,25.0
4170,53.163699690402474,25.0
4171,55.461493808049525,25.0
4172,60.129643962848306,25.0
4173,55.67917956656348,25.0
4174,60.50696594427244,25.0
4175,63.148219814241486,25.0
4176,60.64725232198142,25.0
4177,55.190595975232206,25.0
4178,58.99284055727554,25.0
4179,61.116486068111456,25.0
4180,56.20162538699691,25.0
4181,58.33494582043343,25.0
4182,55.287345201238395,25.0
4183,57.61416408668731,25.0
4184,59.73780959752321,25.0
4185,58.67356811145511,25.0
4186,57.164280185758514,25.0
4187,59.26373839009289,25.0
4188,52.172020123839005,25.0
4189,52.50096749226006,25.0
4190,56.593459752321984,25.0
4191,59.529798761609904,25.0
4192,57.54643962848298,25.0
4193,58.184984520123834,25.0
4194,58.538119195046434,25.0
4195,61.63409442724457,25.0
4196,57.686726006191954,25.0
4197,58.494582043343655,25.0
4198,58.049535603715164,25.0
4199,58.6203560371517,25.0
4200,59.99903250773995,25.0
4201,55.5921052631579,25.0
4202,55.60178018575851,25.0
4203,56.78212074303406,25.0
4204,60.5359907120743,25.0
4205,56.33223684210526,25.0
4206,56.30321207430341,25.0
4207,58.80417956656347,25.0
4208,61.566369969040245,25.0
4209,56.16292569659443,25.0
4210,56.87886996904025,25.0
4211,60.028057275541805,25.0
4212,62.142027863777095,25.0
4213,57.78347523219814,25.0
4214,58.28173374613004,25.0
4215,54.09249226006193,25.0
4216,57.8705495356037,25.0
4217,61.04876160990712,25.0
4218,59.64106037151703,25.0
4219,56.52573529411764,25.0
4220,54.22310371517028,25.0
4221,53.38138544891642,25.0
4222,60.90363777089783,25.0
4223,58.02051083591331,25.0
4224,59.24438854489164,25.0
4225,59.56366099071208,25.0
4226,57.49322755417956,25.0
4227,60.12964396284829,25.0
4228,54.131191950464405,25.0
4229,63.196594427244584,25.0
4230,56.3999613003096,25.0
4231,61.99690402476782,25.0
4232,55.940402476780186,25.0
4233,58.78482972136223,25.0
4234,56.87403250773994,25.0
4235,56.28869969040247,25.0
4236,59.442724458204324,25.0
4237,61.26160990712075,25.0
4238,57.47871517027864,25.0
4239,56.29837461300309,25.0
4240,58.84287925696594,25.0
4241,60.642414860681114,25.0
4242,57.643188854489175,25.0
4243,55.3937693498452,25.0
4244,55.97426470588235,25.0
4245,61.68246904024767,25.0
4246,60.3328173374613,25.0
4247,59.839396284829725,25.0
4248,56.5499226006192,25.0
4249,57.24167956656347,25.0
4250,50.27573529411765,25.0
4251,61.01973684210527,25.0
4252,58.00116099071208,25.0
4253,58.07372291021672,25.0
4254,56.308049535603715,25.0
4255,55.451818885448915,25.0
4256,54.1844040247678,25.0
4257,55.98877708978328,25.0
4258,55.95007739938081,25.0
4259,57.80766253869968,25.0
4260,60.1344814241486,25.0
4261,58.42202012383901,25.0
4262,61.34868421052632,25.0
4263,61.213235294117645,25.0
4264,59.33146284829722,25.0
4265,56.95143188854489,25.0
4266,56.31772445820434,25.0
4267,61.22774767801858,25.0
4268,59.0218653250774,25.0
4269,56.482198142414866,25.0
4270,59.25406346749226,25.0
4271,60.97136222910217,25.0
4272,59.7281346749226,25.0
4273,56.520897832817326,25.0
4274,55.31153250773993,25.0
4275,60.913312693498455,25.0
4276,62.591911764705884,25.0
4277,59.22987616099071,25.0
4278,59.81520897832817,25.0
4279,55.872678018575854,25.0
4280,59.181501547987615,25.0
4281,59.32662538699691,25.0
4282,60.942337461300305,25.0
4283,64.01412538699691,25.0
4284,59.220201238390096,25.0
4285,55.016447368421055,25.0
4286,59.64589783281734,25.0
4287,59.09442724458205,25.0
4288,62.01141640866874,25.0
4289,58.55263157894737,25.0
4290,62.32585139318886,25.0
4291,59.30727554179567,25.0
4292,55.28250773993808,25.0
4293,59.33146284829722,25.0
