sample_id,accuracy,window_size
0,60.88428792569659,150.0
1,61.76954334365325,150.0
2,62.82410990712075,150.0
3,63.34171826625387,150.0
4,61.16969814241485,150.0
5,61.300309597523224,150.0
6,66.63602941176471,150.0
7,62.08881578947368,150.0
8,64.71071981424149,150.0
9,59.79585913312693,150.0
10,68.42105263157895,150.0
11,64.29469814241487,150.0
12,58.91544117647058,150.0
13,60.27960526315789,150.0
14,64.48335913312694,150.0
15,62.20975232198142,150.0
16,62.31133900928793,150.0
17,63.00793343653251,150.0
18,63.77708978328174,150.0
19,61.37770897832816,150.0
20,64.19311145510835,150.0
21,61.38738390092879,150.0
22,57.00948142414862,150.0
23,59.38467492260062,150.0
24,61.57120743034055,150.0
25,62.86764705882353,150.0
26,62.87248452012385,150.0
27,62.91602167182662,150.0
28,60.037732198142415,150.0
29,57.58513931888546,150.0
30,60.018382352941174,150.0
31,60.24574303405572,150.0
32,60.19736842105264,150.0
33,59.370162538699695,150.0
34,60.36184210526315,150.0
35,59.882933436532504,150.0
36,61.31965944272446,150.0
37,60.75851393188856,150.0
38,60.43924148606811,150.0
39,63.52554179566564,150.0
40,60.50696594427245,150.0
41,61.7405185758514,150.0
42,61.32449690402477,150.0
43,60.323142414860676,150.0
44,63.41428018575851,150.0
45,65.62983746130031,150.0
46,65.83301083591333,150.0
47,64.61880804953562,150.0
48,62.7950851393189,150.0
49,58.625193498452006,150.0
50,61.31482198142414,150.0
51,61.76470588235293,150.0
52,61.46478328173375,150.0
53,61.04392414860681,150.0
54,64.19311145510835,150.0
55,58.63003095975231,150.0
56,62.200077399380795,150.0
57,61.856617647058826,150.0
58,67.44388544891639,150.0
59,64.28018575851394,150.0
60,57.39647832817337,150.0
61,62.025928792569644,150.0
62,63.612616099071204,150.0
63,64.22213622291022,150.0
64,62.28231424148606,150.0
65,65.35893962848297,150.0
66,62.02109133126936,150.0
67,64.25599845201239,150.0
68,64.12054953560371,150.0
69,62.291989164086694,150.0
70,60.70046439628483,150.0
71,57.1546052631579,150.0
72,63.39493034055728,150.0
73,58.189821981424146,150.0
74,63.01760835913313,150.0
75,62.67898606811147,150.0
76,58.475232198142415,150.0
77,61.07294891640866,150.0
78,60.028057275541805,150.0
79,61.93885448916408,150.0
80,61.36803405572756,150.0
81,61.19872291021673,150.0
82,61.43575851393189,150.0
83,61.80824303405572,150.0
84,60.44891640866872,150.0
85,63.777089783281724,150.0
86,62.683823529411754,150.0
87,57.31907894736842,150.0
88,59.287925696594435,150.0
89,66.59249226006192,150.0
90,62.983746130030966,150.0
91,59.96033281733746,150.0
92,60.627902476780186,150.0
93,64.1689241486068,150.0
94,60.54082817337461,150.0
95,62.06946594427245,150.0
96,63.29818111455109,150.0
97,68.07275541795667,150.0
98,60.9858746130031,150.0
99,59.55398606811145,150.0
100,60.942337461300305,150.0
101,61.64860681114551,150.0
102,65.07352941176471,150.0
103,63.86416408668732,150.0
104,65.45568885448917,150.0
105,64.33339783281735,150.0
106,61.85178018575851,150.0
107,63.40460526315789,150.0
108,68.14531733746128,150.0
109,61.43092105263158,150.0
110,61.290634674922586,150.0
111,61.0439241486068,150.0
112,64.64783281733745,150.0
113,62.01141640866874,150.0
114,57.28037925696595,150.0
115,59.89260835913313,150.0
116,59.98935758513932,150.0
117,59.612035603715164,150.0
118,59.834558823529406,150.0
119,61.34868421052631,150.0
120,62.538699690402474,150.0
121,61.551857585139324,150.0
122,58.80417956656346,150.0
123,64.65267027863777,150.0
124,58.99284055727554,150.0
125,60.361842105263165,150.0
126,58.87674148606811,150.0
127,56.58862229102167,150.0
128,63.970588235294116,150.0
129,61.967879256965944,150.0
130,61.77921826625387,150.0
131,67.10526315789473,150.0
132,60.50212848297215,150.0
133,65.51857585139318,150.0
134,62.39357585139319,150.0
135,62.857972136222905,150.0
136,61.50832043343653,150.0
137,61.8953173374613,150.0
138,62.65963622291021,150.0
139,63.762577399380795,150.0
140,63.085332817337466,150.0
141,56.12906346749226,150.0
142,68.58552631578948,150.0
143,64.85100619195045,150.0
144,67.93246904024767,150.0
145,61.058436532507734,150.0
146,64.44949690402477,150.0
147,59.26857585139319,150.0
148,64.63332043343651,150.0
149,63.06114551083592,150.0
150,65.421826625387,150.0
151,60.06191950464397,150.0
152,63.854489164086694,150.0
153,66.2780572755418,150.0
154,62.287151702786375,150.0
155,64.20762383900929,150.0
156,60.85042569659442,150.0
157,57.61900154798762,150.0
158,63.04179566563468,150.0
159,66.79566563467493,150.0
160,64.19794891640865,150.0
161,64.31888544891642,150.0
162,57.79315015479876,150.0
163,64.27051083591331,150.0
164,62.51451238390093,150.0
165,61.81308049535604,150.0
166,59.75715944272446,150.0
167,65.35410216718267,150.0
168,59.56849845201239,150.0
169,62.32585139318885,150.0
170,57.24651702786378,150.0
171,58.97349071207431,150.0
172,68.66292569659444,150.0
173,62.08881578947369,150.0
174,65.625,150.0
175,65.3782894736842,150.0
176,62.857972136222905,150.0
177,63.167569659442705,150.0
178,65.01064241486068,150.0
179,58.15595975232197,150.0
180,59.679760061919495,150.0
181,58.8186919504644,150.0
182,63.83997678018576,150.0
183,61.97271671826625,150.0
184,62.408088235294116,150.0
185,66.68924148606811,150.0
186,60.724651702786375,150.0
187,63.78676470588234,150.0
188,59.78134674922601,150.0
189,68.04856811145511,150.0
190,63.94156346749225,150.0
191,67.6325464396285,150.0
192,66.64570433436532,150.0
193,63.56424148606811,150.0
194,64.07217492260064,150.0
195,62.44678792569659,150.0
196,66.73277863777089,150.0
197,62.41292569659442,150.0
198,64.06733746130033,150.0
199,61.35835913312694,150.0
200,60.57469040247679,150.0
201,62.02592879256966,150.0
202,59.39434984520124,150.0
203,65.31056501547987,150.0
204,63.912538699690394,150.0
205,64.13022445820434,150.0
206,61.84210526315789,150.0
207,63.23529411764706,150.0
208,58.38815789473684,150.0
209,61.527670278637785,150.0
210,59.65073529411765,150.0
211,59.34113777089783,150.0
212,64.20762383900929,150.0
213,60.608552631578945,150.0
214,64.14473684210526,150.0
215,63.64164086687306,150.0
216,66.05069659442727,150.0
217,65.65402476780184,150.0
218,64.51722136222912,150.0
219,62.37422600619195,150.0
220,64.81714396284828,150.0
221,64.03831269349845,150.0
222,60.58920278637771,150.0
223,62.853134674922615,150.0
224,60.018382352941174,150.0
225,59.75715944272446,150.0
226,61.276122291021665,150.0
227,59.54431114551084,150.0
228,64.97678018575849,150.0
229,64.12054953560371,150.0
230,65.22349071207431,150.0
231,65.45568885448917,150.0
232,62.495162538699695,150.0
233,62.98858359133128,150.0
234,64.0625,150.0
235,63.03212074303407,150.0
236,63.55940402476781,150.0
237,62.41292569659442,150.0
238,61.242260061919495,150.0
239,63.186919504643974,150.0
240,63.00309597523219,150.0
241,61.62925696594428,150.0
242,63.0514705882353,150.0
243,66.79566563467492,150.0
244,64.14957430340556,150.0
245,66.36996904024768,150.0
246,65.63467492260062,150.0
247,60.192530959752325,150.0
248,63.578753869969034,150.0
249,64.44465944272446,150.0
250,60.03773219814241,150.0
251,63.41428018575851,150.0
252,62.05011609907121,150.0
253,62.33068885448915,150.0
254,63.3513931888545,150.0
255,63.394930340557266,150.0
256,63.72871517027864,150.0
257,62.872484520123834,150.0
258,60.255417956656345,150.0
259,62.66447368421053,150.0
260,61.919504643962846,150.0
261,60.68595201238389,150.0
262,62.901509287925684,150.0
263,64.05282507739938,150.0
264,62.161377708978335,150.0
265,63.63196594427245,150.0
266,62.71768575851394,150.0
267,66.59732972136224,150.0
268,62.108165634674926,150.0
269,63.35623065015479,150.0
270,62.43227554179566,150.0
271,60.92298761609907,150.0
272,64.55108359133126,150.0
273,64.04315015479877,150.0
274,61.00522445820434,150.0
275,65.33475232198143,150.0
276,67.99051857585138,150.0
277,63.26915634674923,150.0
278,59.49109907120743,150.0
279,67.71478328173374,150.0
280,62.86280959752321,150.0
281,64.14957430340559,150.0
282,62.703173374613016,150.0
283,65.05417956656346,150.0
284,63.49651702786379,150.0
285,70.6124226006192,150.0
286,59.965170278637764,150.0
287,62.2049148606811,150.0
288,61.37287151702787,150.0
289,61.67279411764706,150.0
290,61.71633126934984,150.0
291,60.83591331269349,150.0
292,59.27825077399381,150.0
293,62.67898606811144,150.0
294,61.04876160990712,150.0
295,65.31056501547987,150.0
296,62.38390092879256,150.0
297,64.86068111455108,150.0
298,62.8531346749226,150.0
299,66.72794117647061,150.0
300,63.18208204334366,150.0
301,62.01141640866872,150.0
302,56.25967492260062,150.0
303,62.41776315789474,150.0
304,62.13719040247679,150.0
305,63.29334365325077,150.0
306,60.173181114551085,150.0
307,62.84829721362229,150.0
308,59.99903250773994,150.0
309,60.44407894736842,150.0
310,63.13854489164087,150.0
311,61.70181888544892,150.0
312,59.849071207430335,150.0
313,63.57391640866874,150.0
314,59.882933436532504,150.0
315,63.23045665634674,150.0
316,59.142801857585134,150.0
317,64.43498452012382,150.0
318,62.57256191950464,150.0
319,60.057082043343655,150.0
320,61.10197368421053,150.0
321,59.83939628482972,150.0
322,57.5125773993808,150.0
323,63.399767801857585,150.0
324,65.35410216718267,150.0
325,63.47716718266255,150.0
326,63.85932662538701,150.0
327,61.45994582043343,150.0
328,62.649961300309606,150.0
329,57.78347523219814,150.0
330,64.96226780185759,150.0
331,65.828173374613,150.0
332,60.598877708978335,150.0
333,65.1219040247678,150.0
334,63.43846749226006,150.0
335,63.27399380804953,150.0
336,64.7639318885449,150.0
337,63.786764705882355,150.0
338,61.875967492260045,150.0
339,64.34307275541794,150.0
340,63.080495356037154,150.0
341,61.537345201238395,150.0
342,61.184210526315795,150.0
343,67.83571981424147,150.0
344,63.57391640866872,150.0
345,61.84210526315789,150.0
346,62.708010835913306,150.0
347,60.87461300309598,150.0
348,60.173181114551085,150.0
349,65.8813854489164,150.0
350,59.71845975232198,150.0
351,64.29469814241486,150.0
352,63.14821981424149,150.0
353,61.4454334365325,150.0
354,61.15518575851394,150.0
355,63.44814241486068,150.0
356,63.76741486068113,150.0
357,65.4315015479876,150.0
358,65.55727554179565,150.0
359,62.95955882352941,150.0
360,64.06733746130031,150.0
361,61.9485294117647,150.0
362,62.06946594427244,150.0
363,62.31133900928791,150.0
364,63.38525541795666,150.0
365,63.74806501547988,150.0
366,59.56849845201239,150.0
367,59.59268575851394,150.0
368,64.3188854489164,150.0
369,62.500000000000014,150.0
370,63.859326625386984,150.0
371,65.95394736842105,150.0
372,59.81520897832817,150.0
373,58.378482972136226,150.0
374,61.79373065015479,150.0
375,60.30863003095974,150.0
376,62.886996904024784,150.0
377,59.80553405572757,150.0
378,64.29953560371516,150.0
379,63.41911764705881,150.0
380,67.31327399380805,150.0
381,63.36106811145511,150.0
382,63.65131578947368,150.0
383,62.86764705882353,150.0
384,64.9235681114551,150.0
385,62.06946594427244,150.0
386,61.31965944272445,150.0
387,60.48277863777089,150.0
388,61.96304179566564,150.0
389,61.68246904024767,150.0
390,61.2906346749226,150.0
391,58.58165634674923,150.0
392,64.20762383900929,150.0
393,64.81714396284829,150.0
394,63.186919504643974,150.0
395,61.61474458204334,150.0
396,60.53115325077401,150.0
397,63.67550309597523,150.0
398,63.26431888544892,150.0
399,60.361842105263165,150.0
400,69.82875386996905,150.0
401,65.65886222910217,150.0
402,63.999613003095966,150.0
403,57.94794891640867,150.0
404,60.91815015479876,150.0
405,59.10410216718266,150.0
406,62.47581269349844,150.0
407,65.92008513931887,150.0
408,66.84887770897834,150.0
409,58.692917956656345,150.0
410,65.88622291021673,150.0
411,60.55534055727555,150.0
412,61.580882352941174,150.0
413,63.26431888544891,150.0
414,67.09558823529412,150.0
415,65.61048761609906,150.0
416,68.88061145510835,150.0
417,58.79450464396285,150.0
418,60.342492260061924,150.0
419,61.73568111455109,150.0
420,57.77863777089783,150.0
421,68.72581269349847,150.0
422,65.80398606811144,150.0
423,61.967879256965944,150.0
424,59.22987616099072,150.0
425,62.499999999999986,150.0
426,65.65886222910217,150.0
427,65.05901702786376,150.0
428,65.79914860681113,150.0
429,65.02031733746131,150.0
430,65.26219040247678,150.0
431,66.14260835913313,150.0
432,61.116486068111456,150.0
433,62.504837461300305,150.0
434,61.46478328173375,150.0
435,61.79373065015481,150.0
436,60.37635448916409,150.0
437,64.18343653250774,150.0
438,60.9375,150.0
439,64.37209752321984,150.0
440,62.36455108359134,150.0
441,58.91544117647059,150.0
442,64.61880804953559,150.0
443,65.44601393188856,150.0
444,63.32720588235294,150.0
445,62.587074303405565,150.0
446,65.02999226006193,150.0
447,62.24845201238389,150.0
448,60.10061919504645,150.0
449,58.320433436532504,150.0
450,62.73703560371517,150.0
451,61.39705882352941,150.0
452,62.703173374613,150.0
453,63.02244582043343,150.0
454,66.85855263157895,150.0
455,61.77438080495355,150.0
456,62.19523993808049,150.0
457,61.150348297213625,150.0
458,63.167569659442734,150.0
459,60.71013931888545,150.0
460,63.78192724458205,150.0
461,65.26702786377709,150.0
462,59.583010835913306,150.0
463,64.34791021671826,150.0
464,58.04469814241486,150.0
465,62.22910216718266,150.0
466,62.0984907120743,150.0
467,63.733552631578945,150.0
468,60.390866873065015,150.0
469,65.2331656346749,150.0
470,63.085332817337466,150.0
471,64.26567337461299,150.0
472,62.3500386996904,150.0
473,66.06037151702787,150.0
474,61.96304179566564,150.0
475,61.222910216718276,150.0
476,64.67685758513932,150.0
477,58.243034055727556,150.0
478,63.346555727554176,150.0
479,62.161377708978335,150.0
480,64.10603715170278,150.0
481,62.77573529411763,150.0
482,63.559404024767794,150.0
483,60.14415634674922,150.0
484,64.64299535603715,150.0
485,69.92066563467492,150.0
486,63.312693498452006,150.0
487,60.14899380804953,150.0
488,62.53386222910217,150.0
489,61.73568111455108,150.0
490,60.2747678018576,150.0
491,63.52554179566565,150.0
492,61.300309597523224,150.0
493,66.96981424148608,150.0
494,62.11784055727555,150.0
495,64.19794891640866,150.0
496,61.67279411764706,150.0
497,62.36938854489163,150.0
498,62.12751547987615,150.0
499,63.9705882352941,150.0
500,63.84481424148606,150.0
501,62.20975232198142,150.0
502,63.41911764705884,150.0
503,63.114357585139324,150.0
504,60.50696594427245,150.0
505,60.44407894736843,150.0
506,60.88428792569659,150.0
507,63.83997678018576,150.0
508,61.914667182662534,150.0
509,59.64106037151703,150.0
510,65.08320433436532,150.0
511,62.809597523219814,150.0
512,64.65267027863777,150.0
513,58.136609907120736,150.0
514,61.03424922600619,150.0
515,60.41021671826625,150.0
516,60.43440402476781,150.0
517,59.15247678018576,150.0
518,62.73219814241485,150.0
519,63.61745356037151,150.0
520,62.790247678018595,150.0
521,62.746710526315795,150.0
522,59.95065789473684,150.0
523,61.74051857585138,150.0
524,63.23529411764706,150.0
525,65.81849845201236,150.0
526,62.11300309597523,150.0
527,64.1544117647059,150.0
528,61.953366873065,150.0
529,65.05417956656346,150.0
530,62.495162538699695,150.0
531,58.876741486068106,150.0
532,60.245743034055735,150.0
533,59.54914860681114,150.0
534,59.853908668730654,150.0
535,57.44485294117647,150.0
536,62.93053405572755,150.0
537,65.73142414860683,150.0
538,62.36455108359135,150.0
539,65.30089009287927,150.0
540,63.012770897832816,150.0
541,64.1737616099071,150.0
542,63.036958204334375,150.0
543,60.724651702786375,150.0
544,63.68034055727555,150.0
545,62.277476780185744,150.0
546,59.887770897832816,150.0
547,62.504837461300305,150.0
548,62.925696594427244,150.0
549,65.48471362229101,150.0
550,65.0203173374613,150.0
551,63.87383900928791,150.0
552,62.538699690402474,150.0
553,61.52767027863776,150.0
554,62.99825851393189,150.0
555,65.08320433436533,150.0
556,60.03773219814242,150.0
557,65.67337461300309,150.0
558,59.20568885448917,150.0
559,66.25386996904025,150.0
560,63.1046826625387,150.0
561,61.10197368421053,150.0
562,65.10255417956655,150.0
563,65.03482972136221,150.0
564,64.92840557275542,150.0
565,60.216718266253864,150.0
566,58.692917956656345,150.0
567,61.934017027863774,150.0
568,62.84829721362228,150.0
569,63.63196594427242,150.0
570,64.405959752322,150.0
571,63.80611455108359,150.0
572,63.61261609907121,150.0
573,63.9560758513932,150.0
574,63.549729102167184,150.0
575,66.25870743034055,150.0
576,63.21594427244581,150.0
577,63.52554179566564,150.0
578,58.726780185758514,150.0
579,61.9485294117647,150.0
580,65.7749613003096,150.0
581,63.16273219814243,150.0
582,68.37751547987617,150.0
583,60.51664086687306,150.0
584,64.41079721362229,150.0
585,64.90905572755416,150.0
586,60.424729102167184,150.0
587,61.56636996904026,150.0
588,68.48393962848297,150.0
589,65.83301083591333,150.0
590,57.8657120743034,150.0
591,64.44949690402478,150.0
592,57.551277089783284,150.0
593,56.71923374613004,150.0
594,63.66582817337462,150.0
595,63.723877708978335,150.0
596,61.40673374613004,150.0
597,63.777089783281724,150.0
598,59.824883900928796,150.0
599,62.53386222910217,150.0
600,59.88777089783281,150.0
601,58.596168730650156,150.0
602,59.1766640866873,150.0
603,65.05417956656348,150.0
604,61.51315789473685,150.0
605,62.00174148606811,150.0
606,60.05224458204334,150.0
607,60.661764705882355,150.0
608,63.02244582043343,150.0
609,60.269930340557266,150.0
610,62.15170278637772,150.0
611,62.45646284829722,150.0
612,61.653444272445824,150.0
613,63.12403250773994,150.0
614,60.62306501547988,150.0
615,65.2670278637771,150.0
616,63.09017027863777,150.0
617,59.03154024767803,150.0
618,64.68653250773995,150.0
619,63.33204334365325,150.0
620,58.054373065015476,150.0
621,58.397832817337466,150.0
622,65.46536377708978,150.0
623,58.99284055727554,150.0
624,62.01141640866872,150.0
625,64.55108359133126,150.0
626,61.70181888544891,150.0
627,60.603715170278626,150.0
628,58.9734907120743,150.0
629,66.25870743034055,150.0
630,66.00715944272447,150.0
631,61.01973684210526,150.0
632,57.22232972136223,150.0
633,61.31482198142415,150.0
634,58.24787151702785,150.0
635,64.9671052631579,150.0
636,65.9732972136223,150.0
637,60.26025541795666,150.0
638,62.906346749226,150.0
639,63.02244582043345,150.0
640,63.607778637770906,150.0
641,64.33823529411765,150.0
642,59.4233746130031,150.0
643,61.280959752321984,150.0
644,61.28579721362228,150.0
645,65.79914860681114,150.0
646,63.786764705882355,150.0
647,61.79373065015481,150.0
648,63.73839009287925,150.0
649,59.03637770897832,150.0
650,60.594040247678016,150.0
651,63.0079334365325,150.0
652,67.26006191950465,150.0
653,63.07082043343653,150.0
654,69.74651702786377,150.0
655,61.37770897832817,150.0
656,63.32236842105264,150.0
657,62.04527863777088,150.0
658,70.2205882352941,150.0
659,62.56288699690402,150.0
660,61.875967492260074,150.0
661,58.39783281733746,150.0
662,60.381191950464384,150.0
663,63.162732198142415,150.0
664,63.443304953560364,150.0
665,64.04315015479878,150.0
666,59.81037151702787,150.0
667,63.191756965944265,150.0
668,62.03076625386998,150.0
669,56.84500773993809,150.0
670,62.39357585139319,150.0
671,62.20007739938081,150.0
672,63.98510061919505,150.0
673,59.171826625387006,150.0
674,63.399767801857585,150.0
675,61.82759287925696,150.0
676,56.19195046439628,150.0
677,69.06443498452013,150.0
678,58.741292569659436,150.0
679,63.28366873065017,150.0
680,63.225619195046434,150.0
681,63.16756965944272,150.0
682,61.66795665634675,150.0
683,64.4156346749226,150.0
684,65.39280185758513,150.0
685,59.11377708978328,150.0
686,61.609907120743024,150.0
687,58.262383900928796,150.0
688,63.041795665634666,150.0
689,61.808243034055735,150.0
690,63.36590557275543,150.0
691,60.43924148606811,150.0
692,62.20007739938081,150.0
693,65.39763931888545,150.0
694,62.28231424148606,150.0
695,62.12267801857586,150.0
696,66.74729102167183,150.0
697,60.85042569659442,150.0
698,63.62712848297212,150.0
699,63.79160216718266,150.0
700,63.46265479876162,150.0
701,60.87461300309598,150.0
702,65.54276315789473,150.0
703,61.30514705882353,150.0
704,64.53173374613004,150.0
705,60.28928018575851,150.0
706,61.18421052631578,150.0
707,64.6236455108359,150.0
708,66.19098297213621,150.0
709,65.44117647058823,150.0
710,64.60913312693498,150.0
711,64.09152476780186,150.0
712,60.7875386996904,150.0
713,62.867647058823515,150.0
714,62.81443498452012,150.0
715,61.92917956656347,150.0
716,62.04044117647059,150.0
717,62.51451238390092,150.0
718,58.5719814241486,150.0
719,62.267801857585134,150.0
720,61.45994582043345,150.0
721,60.352167182662534,150.0
722,62.90150928792571,150.0
723,61.61474458204336,150.0
724,63.05630804953563,150.0
725,61.561532507739955,150.0
726,63.114357585139324,150.0
727,61.51799535603715,150.0
728,58.412345201238395,150.0
729,63.09017027863776,150.0
730,61.82275541795667,150.0
731,62.214589783281724,150.0
732,64.47852167182663,150.0
733,63.84481424148606,150.0
734,62.350038699690394,150.0
735,62.35971362229102,150.0
736,59.33146284829722,150.0
737,62.48548761609907,150.0
738,63.017608359133135,150.0
739,63.27399380804953,150.0
740,61.213235294117645,150.0
741,61.150348297213625,150.0
742,61.266447368421055,150.0
743,61.160023219814256,150.0
744,63.48200464396285,150.0
745,58.257546439628484,150.0
746,59.65557275541796,150.0
747,62.316176470588225,150.0
748,63.39009287925696,150.0
749,60.74400154798761,150.0
750,66.55379256965944,150.0
751,64.14957430340557,150.0
752,58.33010835913312,150.0
753,61.5421826625387,150.0
754,59.55882352941177,150.0
755,65.04450464396285,150.0
756,62.00657894736842,150.0
757,58.934791021671835,150.0
758,60.647252321981405,150.0
759,66.4812306501548,150.0
760,60.32314241486068,150.0
761,58.731617647058826,150.0
762,61.85661764705881,150.0
763,65.2234907120743,150.0
764,63.23045665634675,150.0
765,63.29334365325077,150.0
766,62.567724458204324,150.0
767,64.77360681114551,150.0
768,67.67608359133128,150.0
769,61.48413312693498,150.0
770,60.76818885448917,150.0
771,58.78966718266255,150.0
772,60.3328173374613,150.0
773,62.10332817337461,150.0
774,61.67763157894738,150.0
775,64.39628482972137,150.0
776,64.06733746130031,150.0
777,67.09075077399382,150.0
778,60.574690402476776,150.0
779,56.777283281733745,150.0
780,57.09171826625387,150.0
781,58.39783281733746,150.0
782,64.1689241486068,150.0
783,61.029411764705884,150.0
784,64.34791021671825,150.0
785,67.25038699690403,150.0
786,64.7203947368421,150.0
787,63.23045665634675,150.0
788,59.287925696594414,150.0
789,59.89744582043344,150.0
790,65.36377708978327,150.0
791,62.23393962848298,150.0
792,61.72116873065016,150.0
793,65.54760061919505,150.0
794,63.98026315789474,150.0
795,67.23587461300309,150.0
796,61.600232198142415,150.0
797,62.137190402476776,150.0
798,63.69485294117647,150.0
799,63.631965944272466,150.0
800,62.73703560371517,150.0
801,63.419117647058826,150.0
802,57.057856037151694,150.0
803,62.11300309597523,150.0
804,62.04044117647059,150.0
805,62.18556501547988,150.0
806,64.43982198142416,150.0
807,62.61609907120743,150.0
808,60.62306501547988,150.0
809,58.64938080495356,150.0
810,66.93111455108361,150.0
811,64.16408668730651,150.0
812,62.258126934984524,150.0
813,63.95123839009288,150.0
814,63.28850619195047,150.0
815,60.661764705882355,150.0
816,64.24632352941178,150.0
817,63.10952012383899,150.0
818,62.10332817337462,150.0
819,60.39086687306502,150.0
820,64.67685758513933,150.0
821,64.0092879256966,150.0
822,57.22232972136223,150.0
823,62.5919117647059,150.0
824,62.456462848297235,150.0
825,60.48277863777089,150.0
826,64.4107972136223,150.0
827,57.909249226006196,150.0
828,59.68459752321981,150.0
829,62.55804953560373,150.0
830,61.295472136222905,150.0
831,58.07372291021673,150.0
832,64.85584365325076,150.0
833,61.01006191950464,150.0
834,61.84210526315789,150.0
835,62.17589009287925,150.0
836,63.31269349845202,150.0
837,64.47852167182663,150.0
838,64.74941950464395,150.0
839,59.20568885448917,150.0
840,62.08397832817338,150.0
841,65.89106037151703,150.0
842,67.90828173374611,150.0
843,62.20007739938081,150.0
844,63.153057275541805,150.0
845,63.29334365325076,150.0
846,56.79179566563468,150.0
847,62.161377708978335,150.0
848,60.119969040247675,150.0
849,64.91873065015479,150.0
850,63.40944272445821,150.0
851,69.07410990712074,150.0
852,65.93943498452012,150.0
853,59.979682662538686,150.0
854,61.27128482972136,150.0
855,61.57604489164087,150.0
856,68.60971362229103,150.0
857,59.98935758513932,150.0
858,60.23123065015479,150.0
859,60.908475232198136,150.0
860,66.35545665634675,150.0
861,59.49109907120742,150.0
862,62.925696594427244,150.0
863,65.90073529411764,150.0
864,64.52689628482972,150.0
865,67.5406346749226,150.0
866,63.54005417956657,150.0
867,58.74613003095975,150.0
868,58.3155959752322,150.0
869,60.14415634674923,150.0
870,60.3328173374613,150.0
871,64.4107972136223,150.0
872,60.50212848297213,150.0
873,64.70104489164085,150.0
874,58.68324303405572,150.0
875,63.423955108359145,150.0
876,64.82681888544892,150.0
877,61.6969814241486,150.0
878,61.06811145510836,150.0
879,58.52844427244582,150.0
880,62.45646284829721,150.0
881,65.29605263157896,150.0
882,66.90208978328172,150.0
883,64.13022445820434,150.0
884,60.65208978328174,150.0
885,66.76664086687309,150.0
886,62.15170278637772,150.0
887,62.74187306501546,150.0
888,63.54972910216719,150.0
889,62.84829721362229,150.0
890,63.119195046439636,150.0
891,61.16969814241488,150.0
892,63.93672600619195,150.0
893,62.91118421052631,150.0
894,60.323142414860676,150.0
895,63.71420278637771,150.0
896,63.42879256965945,150.0
897,66.7859907120743,150.0
898,61.05359907120743,150.0
899,62.03076625386998,150.0
900,65.22832817337463,150.0
901,64.44949690402477,150.0
902,57.04334365325078,150.0
903,57.923761609907125,150.0
904,65.53792569659443,150.0
905,62.67898606811144,150.0
906,65.18479102167183,150.0
907,56.76277089783281,150.0
908,62.97407120743034,150.0
909,61.99206656346749,150.0
910,63.81095201238389,150.0
911,64.04315015479878,150.0
912,62.81927244582043,150.0
913,60.95201238390093,150.0
914,63.53037925696596,150.0
915,64.29469814241484,150.0
916,61.80824303405572,150.0
917,68.17434210526316,150.0
918,64.07701238390091,150.0
919,62.63544891640865,150.0
920,65.74109907120743,150.0
921,65.16060371517028,150.0
922,62.5,150.0
923,63.03695820433436,150.0
924,60.27960526315789,150.0
925,65.33475232198144,150.0
926,63.036958204334375,150.0
927,61.74051857585138,150.0
928,60.89396284829722,150.0
929,60.49245356037152,150.0
930,64.75909442724458,150.0
931,59.31211300309597,150.0
932,61.934017027863774,150.0
933,62.97890866873066,150.0
934,66.13293343653248,150.0
935,62.15654024767803,150.0
936,63.87867647058823,150.0
937,61.934017027863774,150.0
938,60.52147832817337,150.0
939,66.87790247678019,150.0
940,61.36803405572758,150.0
941,59.49593653250774,150.0
942,59.28308823529412,150.0
943,62.649961300309606,150.0
944,63.191756965944265,150.0
945,65.01064241486067,150.0
946,63.041795665634666,150.0
947,63.68034055727554,150.0
948,61.726006191950454,150.0
949,67.11977554179565,150.0
950,63.53521671826626,150.0
951,63.109520123839005,150.0
952,63.41911764705884,150.0
953,63.69485294117647,150.0
954,62.02592879256966,150.0
955,64.37209752321984,150.0
956,57.18363003095975,150.0
957,62.75638544891641,150.0
958,68.23722910216718,150.0
959,63.50135448916409,150.0
960,61.31965944272445,150.0
961,63.29818111455109,150.0
962,57.768962848297214,150.0
963,63.59810371517028,150.0
964,64.59462074303406,150.0
965,63.404605263157904,150.0
966,60.64725232198142,150.0
967,64.7155572755418,150.0
968,62.804760061919495,150.0
969,63.74806501547988,150.0
970,64.08184984520122,150.0
971,63.92221362229103,150.0
972,61.387383900928796,150.0
973,65.54760061919504,150.0
974,62.238777089783284,150.0
975,63.36590557275543,150.0
976,60.41989164086687,150.0
977,60.018382352941174,150.0
978,59.86842105263158,150.0
979,63.530379256965944,150.0
980,65.9829721362229,150.0
981,62.51451238390092,150.0
982,63.859326625387,150.0
983,60.90363777089783,150.0
984,68.1936919504644,150.0
985,65.19446594427244,150.0
986,63.153057275541805,150.0
987,65.29121517027863,150.0
988,61.634094427244584,150.0
989,61.22291021671826,150.0
990,62.27263931888544,150.0
991,60.971362229102155,150.0
992,62.10332817337462,150.0
993,63.70452786377708,150.0
994,58.3639705882353,150.0
995,65.1170665634675,150.0
996,60.76818885448915,150.0
997,63.47232972136223,150.0
998,60.11513157894736,150.0
999,64.63815789473685,150.0
1000,62.78057275541794,150.0
1001,64.3237229102167,150.0
1002,67.10526315789474,150.0
1003,64.2172987616099,150.0
1004,64.87519349845203,150.0
1005,60.714976780185744,150.0
1006,62.475812693498455,150.0
1007,58.95414086687306,150.0
1008,66.11358359133129,150.0
1009,62.83378482972136,150.0
1010,63.01760835913313,150.0
1011,64.24632352941177,150.0
1012,58.44620743034056,150.0
1013,61.11164860681115,150.0
1014,68.16466718266253,150.0
1015,57.42550309597524,150.0
1016,62.73219814241485,150.0
1017,63.39009287925696,150.0
1018,61.8034055727554,150.0
1019,62.94020897832819,150.0
1020,63.00309597523218,150.0
1021,63.743227554179555,150.0
1022,56.24032507739938,150.0
1023,61.26644736842104,150.0
1024,62.68382352941177,150.0
1025,63.515866873065015,150.0
1026,63.16756965944272,150.0
1027,62.204914860681114,150.0
1028,63.71420278637772,150.0
1029,68.76451238390094,150.0
1030,61.846942724458195,150.0
1031,63.5690789473684,150.0
1032,61.2470975232198,150.0
1033,65.28637770897834,150.0
1034,66.7376160990712,150.0
1035,63.641640866873075,150.0
1036,61.95336687306502,150.0
1037,63.486842105263165,150.0
1038,64.63332043343652,150.0
1039,60.5359907120743,150.0
1040,61.527670278637785,150.0
1041,65.53792569659444,150.0
1042,60.690789473684205,150.0
1043,57.406153250774004,150.0
1044,62.27747678018576,150.0
1045,61.86629256965945,150.0
1046,62.180727554179555,150.0
1047,63.23529411764706,150.0
1048,62.50967492260061,150.0
1049,63.94156346749228,150.0
1050,63.641640866873075,150.0
1051,64.44465944272446,150.0
1052,59.25890092879257,150.0
1053,61.34868421052631,150.0
1054,58.85739164086687,150.0
1055,65.88622291021672,150.0
1056,63.78676470588234,150.0
1057,67.26006191950465,150.0
1058,59.2734133126935,150.0
1059,65.63467492260062,150.0
1060,60.48761609907121,150.0
1061,61.47445820433436,150.0
1062,60.59887770897832,150.0
1063,61.61958204334364,150.0
1064,65.06385448916409,150.0
1065,62.42260061919504,150.0
1066,66.6311919504644,150.0
1067,60.23606811145511,150.0
1068,63.71420278637772,150.0
1069,63.046633126934985,150.0
1070,58.08823529411764,150.0
1071,61.99206656346749,150.0
1072,63.86900154798762,150.0
1073,63.77708978328174,150.0
1074,62.857972136222905,150.0
1075,63.06114551083592,150.0
1076,62.68382352941177,150.0
1077,59.636222910216716,150.0
1078,63.98026315789474,150.0
1079,62.65963622291021,150.0
1080,65.6782120743034,150.0
1081,61.12132352941177,150.0
1082,65.22349071207432,150.0
1083,62.30650154798762,150.0
1084,65.19446594427244,150.0
1085,68.13080495356037,150.0
1086,60.94233746130029,150.0
1087,59.97484520123839,150.0
1088,64.47368421052634,150.0
1089,64.33339783281733,150.0
1090,61.51315789473685,150.0
1091,63.03695820433436,150.0
1092,65.2670278637771,150.0
1093,62.5,150.0
1094,61.13099845201238,150.0
1095,63.39493034055728,150.0
1096,64.96226780185758,150.0
1097,64.01896284829722,150.0
1098,61.80824303405572,150.0
1099,61.996904024767794,150.0
1100,59.57817337461301,150.0
1101,65.95394736842105,150.0
1102,62.41776315789473,150.0
1103,62.785410216718276,150.0
1104,63.414280185758514,150.0
1105,66.01683436532508,150.0
1106,61.547020123839005,150.0
1107,61.07778637770898,150.0
1108,60.14899380804954,150.0
1109,64.82198142414862,150.0
1110,62.57739938080495,150.0
1111,60.598877708978335,150.0
1112,61.40673374613004,150.0
1113,62.92085913312694,150.0
1114,63.5061919504644,150.0
1115,61.058436532507734,150.0
1116,63.15789473684211,150.0
1117,60.2312306501548,150.0
1118,63.02728328173375,150.0
1119,61.11164860681114,150.0
1120,60.74883900928791,150.0
1121,63.4578173374613,150.0
1122,68.94833591331269,150.0
1123,63.670665634674926,150.0
1124,64.39628482972137,150.0
1125,60.44891640866872,150.0
1126,61.47929566563468,150.0
1127,63.24013157894738,150.0
1128,61.580882352941174,150.0
1129,61.803405572755416,150.0
1130,64.58978328173373,150.0
1131,68.54198916408667,150.0
1132,61.629256965944265,150.0
1133,63.60777863777089,150.0
1134,62.20007739938081,150.0
1135,61.81791795665636,150.0
1136,66.91176470588235,150.0
1137,60.37151702786379,150.0
1138,64.5123839009288,150.0
1139,59.0218653250774,150.0
1140,63.839976780185744,150.0
1141,62.13719040247679,150.0
1142,64.74941950464397,150.0
1143,60.366679566563455,150.0
1144,62.9982585139319,150.0
1145,59.14763931888545,150.0
1146,58.547794117647065,150.0
1147,55.84849071207431,150.0
1148,64.74941950464395,150.0
1149,60.34732972136223,150.0
1150,59.907120743034056,150.0
1151,58.4655572755418,150.0
1152,62.43227554179566,150.0
1153,64.92356811145513,150.0
1154,62.790247678018595,150.0
1155,61.813080495356026,150.0
1156,64.94291795665636,150.0
1157,64.79295665634675,150.0
1158,60.1828560371517,150.0
1159,63.69969040247679,150.0
1160,61.493808049535616,150.0
1161,61.61474458204334,150.0
1162,62.1468653250774,150.0
1163,58.397832817337466,150.0
1164,59.30243808049536,150.0
1165,64.31404798761612,150.0
1166,65.32991486068111,150.0
1167,60.318304953560364,150.0
1168,63.02244582043343,150.0
1169,63.54005417956657,150.0
1170,58.16079721362229,150.0
1171,58.576818885448915,150.0
1172,61.12132352941177,150.0
1173,65.2283281733746,150.0
1174,62.87732198142414,150.0
1175,57.483552631578945,150.0
1176,59.974845201238395,150.0
1177,60.995549535603715,150.0
1178,66.50541795665636,150.0
1179,62.48548761609907,150.0
1180,67.40518575851392,150.0
1181,65.94910990712074,150.0
1182,64.60913312693499,150.0
1183,64.09152476780186,150.0
1184,66.42318111455108,150.0
1185,62.224264705882355,150.0
1186,65.09287925696594,150.0
1187,59.786184210526315,150.0
1188,64.91389318885449,150.0
1189,61.43092105263158,150.0
1190,65.43633900928793,150.0
1191,62.51451238390092,150.0
1192,64.17859907120742,150.0
1193,63.26915634674923,150.0
1194,56.62248452012384,150.0
1195,63.00793343653251,150.0
1196,59.63138544891641,150.0
1197,65.13157894736842,150.0
1198,65.10255417956655,150.0
1199,62.65479876160992,150.0
1200,61.99206656346749,150.0
1201,62.775735294117645,150.0
1202,63.28850619195047,150.0
1203,64.5075464396285,150.0
1204,58.775154798761605,150.0
1205,61.59055727554179,150.0
1206,61.203560371517035,150.0
1207,61.900154798761605,150.0
1208,63.612616099071204,150.0
1209,62.91118421052631,150.0
1210,61.10681114551085,150.0
1211,58.61551857585139,150.0
1212,62.33552631578947,150.0
1213,63.47232972136223,150.0
1214,63.786764705882355,150.0
1215,63.482004643962846,150.0
1216,67.54063467492261,150.0
1217,63.45297987616098,150.0
1218,62.741873065015476,150.0
1219,61.52767027863777,150.0
1220,64.08668730650156,150.0
1221,65.61532507739938,150.0
1222,61.967879256965944,150.0
1223,55.10352167182662,150.0
1224,63.56907894736843,150.0
1225,60.80688854489164,150.0
1226,65.34926470588235,150.0
1227,69.4175696594427,150.0
1228,62.4516253869969,150.0
1229,64.34307275541796,150.0
1230,59.297600619195045,150.0
1231,64.30437306501548,150.0
1232,62.91602167182664,150.0
1233,64.25116099071207,150.0
1234,63.2111068111455,150.0
1235,59.684597523219814,150.0
1236,59.38951238390092,150.0
1237,63.40460526315789,150.0
1238,64.96226780185759,150.0
1239,60.579527863777095,150.0
1240,59.181501547987615,150.0
1241,62.3935758513932,150.0
1242,59.70878482972137,150.0
1243,61.638931888544874,150.0
1244,59.85390866873065,150.0
1245,61.64376934984521,150.0
1246,66.41350619195045,150.0
1247,64.73006965944273,150.0
1248,67.77767027863776,150.0
1249,64.50754643962848,150.0
1250,64.89454334365325,150.0
1251,61.904992260061924,150.0
1252,61.95820433436532,150.0
1253,68.64841331269349,150.0
1254,64.13506191950465,150.0
1255,61.116486068111456,150.0
1256,61.958204334365334,150.0
1257,59.91195820433437,150.0
1258,65.05417956656345,150.0
1259,65.96845975232199,150.0
1260,65.04934210526315,150.0
1261,61.98722910216719,150.0
1262,62.21942724458205,150.0
1263,59.94582043343653,150.0
1264,66.54895510835914,150.0
1265,66.11842105263156,150.0
1266,61.92917956656347,150.0
1267,61.842105263157904,150.0
1268,61.455108359133135,150.0
1269,63.16756965944272,150.0
1270,60.04740712074303,150.0
1271,66.12325851393189,150.0
1272,62.296826625387,150.0
1273,66.40383126934982,150.0
1274,63.00309597523219,150.0
1275,60.77302631578947,150.0
1276,59.56366099071208,150.0
1277,60.26025541795666,150.0
1278,63.24496904024768,150.0
1279,60.55050309597523,150.0
1280,63.419117647058826,150.0
1281,62.78541021671828,150.0
1282,62.72736068111455,150.0
1283,66.42801857585138,150.0
1284,60.16350619195047,150.0
1285,61.09229876160992,150.0
1286,64.37693498452013,150.0
1287,65.1073916408669,150.0
1288,61.66311919504645,150.0
1289,63.71420278637771,150.0
1290,62.74671052631578,150.0
1291,62.23393962848298,150.0
1292,66.6844040247678,150.0
1293,63.8641640866873,150.0
1294,61.387383900928796,150.0
1295,66.82952786377709,150.0
1296,65.0735294117647,150.0
1297,64.62848297213621,150.0
1298,59.2250386996904,150.0
1299,61.12132352941177,150.0
1300,60.56985294117647,150.0
1301,62.495162538699695,150.0
1302,66.1764705882353,150.0
1303,62.41292569659442,150.0
1304,58.73161764705883,150.0
1305,62.24845201238389,150.0
1306,62.258126934984524,150.0
1307,63.61745356037152,150.0
1308,60.11513157894736,150.0
1309,59.38467492260062,150.0
1310,60.45375386996904,150.0
1311,57.07236842105263,150.0
1312,58.615518575851404,150.0
1313,62.58707430340558,150.0
1314,64.58494582043342,150.0
1315,64.23664860681116,150.0
1316,62.72736068111455,150.0
1317,61.62441950464396,150.0
1318,61.222910216718276,150.0
1319,60.874613003095966,150.0
1320,60.96168730650156,150.0
1321,64.96226780185759,150.0
1322,66.57797987616098,150.0
1323,61.803405572755416,150.0
1324,64.54140866873064,150.0
1325,63.482004643962846,150.0
1326,61.750193498452006,150.0
1327,65.61048761609906,150.0
1328,61.00038699690402,150.0
1329,64.58494582043342,150.0
1330,59.71362229102167,150.0
1331,59.31211300309597,150.0
1332,60.21671826625388,150.0
1333,60.11029411764706,150.0
1334,62.21458978328174,150.0
1335,60.565015479876166,150.0
1336,61.79373065015479,150.0
1337,61.86629256965945,150.0
1338,59.48142414860681,150.0
1339,64.39628482972135,150.0
1340,62.77089783281734,150.0
1341,61.3390092879257,150.0
1342,64.83165634674923,150.0
1343,63.67550309597523,150.0
1344,59.14280185758514,150.0
1345,62.64028637770897,150.0
1346,60.88428792569659,150.0
1347,59.82972136222911,150.0
1348,59.55398606811145,150.0
1349,61.63893188854489,150.0
1350,56.91756965944272,150.0
1351,64.30437306501547,150.0
1352,62.63061145510836,150.0
1353,58.7219427244582,150.0
1354,57.46420278637771,150.0
1355,63.462654798761605,150.0
1356,62.58223684210526,150.0
1357,63.3078560371517,150.0
1358,64.58494582043345,150.0
1359,61.70181888544892,150.0
1360,66.18614551083591,150.0
1361,60.94717492260061,150.0
1362,58.11242260061919,150.0
1363,62.63544891640865,150.0
1364,61.687306501547994,150.0
1365,61.73568111455108,150.0
1366,63.67550309597523,150.0
1367,61.57604489164087,150.0
1368,66.15228328173374,150.0
1369,62.51451238390093,150.0
1370,60.279605263157904,150.0
1371,63.0514705882353,150.0
1372,62.71768575851394,150.0
1373,58.881578947368425,150.0
1374,61.595394736842096,150.0
1375,61.42608359133128,150.0
1376,66.46671826625388,150.0
1377,59.97000773993808,150.0
1378,63.4578173374613,150.0
1379,62.84345975232197,150.0
1380,62.587074303405565,150.0
1381,65.1654411764706,150.0
1382,57.95762383900929,150.0
1383,60.47310371517027,150.0
1384,62.65963622291022,150.0
1385,57.40131578947369,150.0
1386,60.661764705882355,150.0
1387,62.44678792569659,150.0
1388,62.20975232198142,150.0
1389,61.914667182662534,150.0
1390,61.61474458204333,150.0
1391,62.07914086687306,150.0
1392,64.59462074303406,150.0
1393,62.24845201238389,150.0
1394,63.24496904024768,150.0
1395,66.52960526315789,150.0
1396,62.64028637770898,150.0
1397,66.7908281733746,150.0
1398,62.35487616099071,150.0
1399,63.55940402476781,150.0
1400,64.68653250773995,150.0
1401,60.695626934984524,150.0
1402,63.719040247678016,150.0
1403,63.81095201238389,150.0
1404,60.74883900928793,150.0
1405,63.63196594427245,150.0
1406,66.28773219814241,150.0
1407,58.673568111455104,150.0
1408,57.536764705882355,150.0
1409,62.44195046439627,150.0
1410,64.1640866873065,150.0
1411,60.12964396284829,150.0
1412,60.87461300309598,150.0
1413,63.29334365325077,150.0
1414,64.02380030959752,150.0
1415,61.74051857585138,150.0
1416,63.53521671826625,150.0
1417,63.109520123839005,150.0
1418,63.57875386996904,150.0
1419,59.4282120743034,150.0
1420,61.85178018575851,150.0
1421,59.5249613003096,150.0
1422,64.77360681114553,150.0
1423,62.756385448916426,150.0
1424,59.71845975232197,150.0
1425,65.62983746130031,150.0
1426,61.880804953560364,150.0
1427,61.19388544891641,150.0
1428,61.43575851393189,150.0
1429,59.33630030959752,150.0
1430,65.0638544891641,150.0
1431,61.45510835913313,150.0
1432,61.198722910216716,150.0
1433,62.519349845201226,150.0
1434,66.374806501548,150.0
1435,57.48839009287926,150.0
1436,59.36048761609908,150.0
1437,65.13641640866874,150.0
1438,63.801277089783284,150.0
1439,64.1060371517028,150.0
1440,62.65963622291022,150.0
1441,61.72600619195047,150.0
1442,65.52341331269349,150.0
1443,62.42743808049537,150.0
1444,60.37635448916408,150.0
1445,62.27263931888544,150.0
1446,63.07565789473685,150.0
1447,65.50890092879257,150.0
1448,60.342492260061924,150.0
1449,62.08881578947369,150.0
1450,65.4798761609907,150.0
1451,63.4578173374613,150.0
1452,61.98239164086687,150.0
1453,64.20762383900927,150.0
1454,64.38177244582043,150.0
1455,60.60371517027864,150.0
1456,64.3140479876161,150.0
1457,64.06733746130031,150.0
1458,60.28444272445821,150.0
1459,64.23664860681114,150.0
1460,66.55863003095975,150.0
1461,61.01973684210526,150.0
1462,56.53541021671827,150.0
1463,60.173181114551085,150.0
1464,61.63893188854489,150.0
1465,56.762770897832816,150.0
1466,63.84481424148608,150.0
1467,63.975425696594435,150.0
1468,59.90228328173376,150.0
1469,59.757159442724465,150.0
1470,63.33204334365325,150.0
1471,59.655572755417964,150.0
1472,66.50541795665634,150.0
1473,59.810371517027875,150.0
1474,63.448142414860676,150.0
1475,62.05979102167183,150.0
1476,61.25677244582043,150.0
1477,60.57469040247676,150.0
1478,66.85855263157896,150.0
1479,64.02863777089783,150.0
1480,62.456462848297235,150.0
1481,59.73780959752322,150.0
1482,64.92356811145513,150.0
1483,59.38951238390093,150.0
1484,65.47020123839008,150.0
1485,62.9015092879257,150.0
1486,65.02999226006192,150.0
1487,61.93885448916408,150.0
1488,63.50135448916408,150.0
1489,60.705301857585134,150.0
1490,62.93053405572756,150.0
1491,62.20975232198143,150.0
1492,56.008126934984524,150.0
1493,60.22155572755418,150.0
1494,64.56075851393187,150.0
1495,64.3624226006192,150.0
1496,61.67279411764706,150.0
1497,58.99284055727554,150.0
1498,59.10893962848297,150.0
1499,59.95065789473684,150.0
1500,63.99961300309598,150.0
1501,62.75638544891641,150.0
1502,58.28657120743034,150.0
1503,62.654798761609904,150.0
1504,58.16079721362228,150.0
1505,61.653444272445824,150.0
1506,61.77921826625387,150.0
1507,62.204914860681114,150.0
1508,61.85661764705884,150.0
1509,63.70452786377708,150.0
1510,61.967879256965944,150.0
1511,58.3688080495356,150.0
1512,58.99767801857585,150.0
1513,65.44601393188854,150.0
1514,62.33552631578949,150.0
1515,58.596168730650156,150.0
1516,62.712848297213625,150.0
1517,63.14821981424149,150.0
1518,59.87325851393189,150.0
1519,64.7542569659443,150.0
1520,64.04798761609906,150.0
1521,62.40325077399381,150.0
1522,57.73026315789474,150.0
1523,60.05708204334365,150.0
1524,63.124032507739926,150.0
1525,64.43014705882354,150.0
1526,64.09152476780184,150.0
1527,65.48955108359132,150.0
1528,58.85739164086687,150.0
1529,67.71962074303406,150.0
1530,67.41002321981424,150.0
1531,65.72658668730651,150.0
1532,62.87732198142415,150.0
1533,60.71013931888545,150.0
1534,56.55476006191951,150.0
1535,62.28231424148608,150.0
1536,63.665828173374635,150.0
1537,64.51722136222911,150.0
1538,60.995549535603715,150.0
1539,59.553986068111456,150.0
1540,66.23935758513932,150.0
1541,58.494582043343655,150.0
1542,61.09713622291022,150.0
1543,62.21458978328174,150.0
1544,62.00657894736842,150.0
1545,57.328753869969034,150.0
1546,63.12403250773994,150.0
1547,62.25328947368422,150.0
1548,62.84829721362229,150.0
1549,64.33339783281734,150.0
1550,58.20433436532507,150.0
1551,61.52283281733745,150.0
1552,61.005224458204324,150.0
1553,67.41486068111456,150.0
1554,66.69407894736844,150.0
1555,63.81095201238391,150.0
1556,58.209171826625386,150.0
1557,61.06811145510836,150.0
1558,59.98935758513932,150.0
1559,62.07430340557274,150.0
1560,64.90421826625388,150.0
1561,65.88622291021672,150.0
1562,61.43092105263158,150.0
1563,63.19659442724457,150.0
1564,66.24419504643964,150.0
1565,60.04256965944273,150.0
1566,64.672020123839,150.0
1567,64.20762383900927,150.0
1568,64.92840557275541,150.0
1569,62.175890092879264,150.0
1570,59.13312693498452,150.0
1571,61.653444272445824,150.0
1572,59.940982972136226,150.0
1573,62.28231424148608,150.0
1574,59.75232198142415,150.0
1575,66.45704334365325,150.0
1576,59.49109907120743,150.0
1577,65.51857585139321,150.0
1578,61.42124613003096,150.0
1579,63.51586687306502,150.0
1580,64.15441176470588,150.0
1581,62.06462848297213,150.0
1582,59.31695046439629,150.0
1583,65.72658668730648,150.0
1584,63.00309597523219,150.0
1585,62.66447368421053,150.0
1586,64.15441176470588,150.0
1587,59.59268575851394,150.0
1588,64.10119969040248,150.0
1589,64.09636222910217,150.0
1590,61.01489938080495,150.0
1591,60.77302631578947,150.0
1592,63.24980650154798,150.0
1593,61.44059597523219,150.0
1594,56.77244582043344,150.0
1595,61.07294891640866,150.0
1596,63.878676470588225,150.0
1597,63.148219814241486,150.0
1598,61.392221362229094,150.0
1599,60.97136222910217,150.0
1600,59.52979876160992,150.0
1601,59.27341331269349,150.0
1602,59.40886222910217,150.0
1603,62.81443498452012,150.0
1604,63.26915634674924,150.0
1605,64.7203947368421,150.0
1606,61.005224458204324,150.0
1607,65.25251547987618,150.0
1608,62.20491486068113,150.0
1609,62.07430340557277,150.0
1610,60.7391640866873,150.0
1611,61.290634674922615,150.0
1612,66.04585913312694,150.0
1613,65.07836687306502,150.0
1614,64.93808049535603,150.0
1615,59.53463622291021,150.0
1616,56.7047213622291,150.0
1617,55.76625386996904,150.0
1618,65.34442724458205,150.0
1619,62.22910216718266,150.0
1620,66.234520123839,150.0
1621,60.91815015479876,150.0
1622,62.42743808049536,150.0
1623,61.600232198142415,150.0
1624,67.40034829721363,150.0
1625,61.7453560371517,150.0
1626,63.98026315789474,150.0
1627,66.33610681114551,150.0
1628,61.590557275541805,150.0
1629,59.142801857585134,150.0
1630,58.789667182662534,150.0
1631,66.87790247678016,150.0
1632,61.11164860681115,150.0
1633,64.12538699690401,150.0
1634,65.19930340557278,150.0
1635,70.17705108359131,150.0
1636,59.5830108359133,150.0
1637,63.109520123839005,150.0
1638,64.0189628482972,150.0
1639,58.67840557275542,150.0
1640,60.69078947368422,150.0
1641,60.627902476780186,150.0
1642,64.0189628482972,150.0
1643,62.19523993808049,150.0
1644,59.936145510835914,150.0
1645,66.7327786377709,150.0
1646,60.88428792569659,150.0
1647,62.558049535603715,150.0
1648,58.91544117647059,150.0
1649,61.13583591331268,150.0
1650,59.73780959752322,150.0
1651,59.994195046439636,150.0
1652,64.26083591331269,150.0
1653,60.927825077399376,150.0
1654,62.69833591331271,150.0
1655,58.63003095975232,150.0
1656,67.05205108359134,150.0
1657,59.060565015479874,150.0
1658,60.89880030959751,150.0
1659,66.48123065015479,150.0
1660,62.54353715170278,150.0
1661,63.670665634674926,150.0
1662,61.04876160990712,150.0
1663,58.18498452012383,150.0
1664,64.5607585139319,150.0
1665,62.906346749226,150.0
1666,62.16621517027864,150.0
1667,63.22561919504645,150.0
1668,59.96033281733747,150.0
1669,65.20897832817336,150.0
1670,63.50135448916409,150.0
1671,61.81791795665634,150.0
1672,63.167569659442705,150.0
1673,63.970588235294116,150.0
1674,66.04585913312694,150.0
1675,64.40595975232199,150.0
1676,61.7405185758514,150.0
1677,63.96575077399378,150.0
1678,57.31907894736842,150.0
1679,62.57739938080495,150.0
1680,61.7888931888545,150.0
1681,63.92221362229102,150.0
1682,62.93537151702787,150.0
1683,65.30572755417955,150.0
1684,66.984326625387,150.0
1685,58.0108359133127,150.0
1686,57.856037151702786,150.0
1687,59.549148606811144,150.0
1688,63.30301857585138,150.0
1689,63.63196594427245,150.0
1690,60.78270123839008,150.0
1691,62.05495356037152,150.0
1692,64.4591718266254,150.0
1693,63.3513931888545,150.0
1694,59.45723684210526,150.0
1695,64.1060371517028,150.0
1696,64.42530959752321,150.0
1697,63.37074303405572,150.0
1698,65.26702786377707,150.0
1699,57.34326625386996,150.0
1700,62.461300309597526,150.0
1701,64.37209752321982,150.0
1702,60.898800309597526,150.0
1703,67.91795665634675,150.0
1704,62.22426470588234,150.0
1705,65.34442724458204,150.0
1706,63.26431888544892,150.0
1707,64.79295665634675,150.0
1708,65.14609133126933,150.0
1709,63.791602167182674,150.0
1710,66.00715944272444,150.0
1711,62.29682662538701,150.0
1712,59.63138544891641,150.0
1713,64.07217492260061,150.0
1714,64.63332043343655,150.0
1715,64.69620743034055,150.0
1716,68.68711300309599,150.0
1717,60.92298761609907,150.0
1718,58.83320433436532,150.0
1719,65.67337461300309,150.0
1720,59.82004643962847,150.0
1721,59.10410216718266,150.0
1722,60.18285603715171,150.0
1723,65.67337461300308,150.0
1724,61.005224458204324,150.0
1725,61.934017027863774,150.0
1726,61.36803405572755,150.0
1727,64.80263157894737,150.0
1728,60.82623839009288,150.0
1729,63.60777863777089,150.0
1730,57.88989938080496,150.0
1731,63.486842105263165,150.0
1732,56.52089783281733,150.0
1733,60.313467492260074,150.0
1734,64.22697368421052,150.0
1735,66.234520123839,150.0
1736,67.57449690402477,150.0
1737,62.58707430340558,150.0
1738,61.92917956656347,150.0
1739,66.91660216718266,150.0
1740,66.62151702786377,150.0
1741,63.186919504643974,150.0
1742,64.4640092879257,150.0
1743,61.750193498452006,150.0
1744,60.037732198142415,150.0
1745,65.30572755417955,150.0
1746,62.137190402476776,150.0
1747,61.01973684210526,150.0
1748,63.0514705882353,150.0
1749,62.31617647058823,150.0
1750,64.89454334365325,150.0
1751,62.66931114551085,150.0
1752,61.16486068111456,150.0
1753,61.79373065015481,150.0
1754,59.75232198142415,150.0
1755,61.39222136222911,150.0
1756,69.10313467492261,150.0
1757,64.95743034055728,150.0
1758,62.94020897832819,150.0
1759,62.857972136222905,150.0
1760,59.86842105263157,150.0
1761,59.72813467492261,150.0
1762,61.861455108359145,150.0
1763,58.23335913312693,150.0
1764,61.039086687306494,150.0
1765,58.920278637770906,150.0
1766,61.80824303405572,150.0
1767,63.78192724458205,150.0
1768,60.26025541795666,150.0
1769,62.88215944272446,150.0
1770,58.89609133126936,150.0
1771,67.88893188854489,150.0
1772,59.14763931888546,150.0
1773,61.25677244582043,150.0
1774,58.881578947368425,150.0
1775,62.58223684210526,150.0
1776,60.3328173374613,150.0
1777,66.07488390092878,150.0
1778,64.57043343653251,150.0
1779,57.74961300309598,150.0
1780,65.99748452012385,150.0
1781,61.145510835913306,150.0
1782,64.19794891640868,150.0
1783,60.961687306501545,150.0
1784,61.479295665634666,150.0
1785,59.97000773993808,150.0
1786,61.3390092879257,150.0
1787,61.55669504643962,150.0
1788,63.60294117647059,150.0
1789,60.932662538699695,150.0
1790,58.87674148606812,150.0
1791,60.23123065015479,150.0
1792,60.11996904024767,150.0
1793,57.59965170278638,150.0
1794,63.186919504643974,150.0
1795,63.515866873065,150.0
1796,59.370162538699695,150.0
1797,60.59887770897832,150.0
1798,59.80069659442725,150.0
1799,65.17027863777089,150.0
1800,62.57739938080496,150.0
1801,62.98858359133128,150.0
1802,58.22852167182663,150.0
1803,54.861648606811144,150.0
1804,62.11300309597523,150.0
1805,62.61126160990712,150.0
1806,61.75019349845202,150.0
1807,59.921633126934985,150.0
1808,63.37558049535602,150.0
1809,61.36803405572756,150.0
1810,62.16621517027864,150.0
1811,64.71555727554181,150.0
1812,61.692143962848284,150.0
1813,59.20568885448916,150.0
1814,60.41021671826625,150.0
1815,62.15170278637772,150.0
1816,61.808243034055735,150.0
1817,64.40112229102166,150.0
1818,60.46826625386998,150.0
1819,60.50696594427245,150.0
1820,62.86764705882353,150.0
1821,62.63544891640866,150.0
1822,60.7875386996904,150.0
1823,63.63680340557274,150.0
1824,62.11300309597523,150.0
1825,63.17724458204334,150.0
1826,58.38815789473685,150.0
1827,59.79585913312693,150.0
1828,67.63254643962848,150.0
1829,64.81230650154798,150.0
1830,61.85178018575851,150.0
1831,66.36996904024767,150.0
1832,64.92356811145513,150.0
1833,60.44891640866872,150.0
1834,64.5268962848297,150.0
1835,63.91737616099071,150.0
1836,60.96168730650156,150.0
1837,63.477167182662534,150.0
1838,59.91195820433437,150.0
1839,62.08397832817337,150.0
1840,61.52283281733745,150.0
1841,64.04315015479875,150.0
1842,66.28289473684211,150.0
1843,66.41834365325076,150.0
1844,62.838622291021665,150.0
1845,63.11435758513932,150.0
1846,59.12345201238391,150.0
1847,63.76257739938081,150.0
1848,65.7265866873065,150.0
1849,63.65615325077398,150.0
1850,59.28792569659443,150.0
1851,60.72948916408668,150.0
1852,66.30224458204333,150.0
1853,61.784055727554176,150.0
1854,60.42956656346749,150.0
1855,63.69001547987615,150.0
1856,62.499999999999986,150.0
1857,62.25328947368422,150.0
1858,61.851780185758514,150.0
1859,63.254643962848284,150.0
1860,58.85255417956656,150.0
1861,63.32236842105262,150.0
1862,62.22910216718266,150.0
1863,62.48548761609908,150.0
1864,62.175890092879264,150.0
1865,60.76335139318885,150.0
1866,63.16756965944272,150.0
1867,64.42530959752325,150.0
1868,59.050890092879264,150.0
1869,63.87867647058823,150.0
1870,64.99613003095976,150.0
1871,60.15383126934984,150.0
1872,65.95878482972137,150.0
1873,58.18498452012383,150.0
1874,64.74458204334366,150.0
1875,64.25116099071207,150.0
1876,58.48006965944273,150.0
1877,63.912538699690415,150.0
1878,68.38235294117646,150.0
1879,63.81578947368422,150.0
1880,64.39144736842105,150.0
1881,66.35545665634675,150.0
1882,60.400541795665625,150.0
1883,62.1468653250774,150.0
1884,61.40673374613002,150.0
1885,61.513157894736835,150.0
1886,61.18904798761611,150.0
1887,63.86900154798761,150.0
1888,58.562306501547994,150.0
1889,59.16698916408669,150.0
1890,64.84616873065015,150.0
1891,64.76393188854489,150.0
1892,64.52689628482972,150.0
1893,61.140673374613,150.0
1894,64.88486842105263,150.0
1895,60.81172600619196,150.0
1896,64.61880804953562,150.0
1897,64.84133126934982,150.0
1898,59.67492260061918,150.0
1899,63.86900154798761,150.0
1900,63.796439628482965,150.0
1901,62.233939628482965,150.0
1902,62.277476780185744,150.0
1903,59.52979876160991,150.0
1904,62.94020897832817,150.0
1905,62.480650154798774,150.0
1906,60.76335139318886,150.0
1907,61.53250773993809,150.0
1908,60.77786377708978,150.0
1909,58.10758513931889,150.0
1910,60.26509287925696,150.0
1911,64.91389318885449,150.0
1912,62.509674922600624,150.0
1913,58.69775541795666,150.0
1914,60.342492260061924,150.0
1915,61.93401702786379,150.0
1916,62.74187306501549,150.0
1917,64.42530959752321,150.0
1918,68.1888544891641,150.0
1919,59.55882352941177,150.0
1920,63.23045665634675,150.0
1921,60.13448142414861,150.0
1922,58.95897832817337,150.0
1923,60.34732972136223,150.0
1924,65.42182662538698,150.0
1925,61.39705882352943,150.0
1926,61.86629256965945,150.0
1927,66.0845588235294,150.0
1928,60.74883900928791,150.0
1929,64.97194272445822,150.0
1930,58.896091331269346,150.0
1931,66.4812306501548,150.0
1932,62.18556501547988,150.0
1933,61.46962074303404,150.0
1934,61.70665634674923,150.0
1935,60.31830495356038,150.0
1936,63.486842105263165,150.0
1937,61.247097523219814,150.0
1938,66.29740712074305,150.0
1939,61.79373065015481,150.0
1940,62.44678792569659,150.0
1941,57.28521671826625,150.0
1942,60.50212848297213,150.0
1943,63.66099071207429,150.0
1944,62.857972136222905,150.0
1945,58.96381578947369,150.0
1946,61.07294891640868,150.0
1947,60.21671826625387,150.0
1948,59.89744582043345,150.0
1949,63.09984520123838,150.0
1950,61.82275541795664,150.0
1951,63.06114551083592,150.0
1952,68.24690402476779,150.0
1953,60.318304953560364,150.0
1954,61.77438080495355,150.0
1955,61.06811145510836,150.0
1956,59.5733359133127,150.0
1957,63.312693498452,150.0
1958,61.21807275541795,150.0
1959,63.90286377708978,150.0
1960,62.52418730650153,150.0
1961,63.8641640866873,150.0
1962,62.56772445820434,150.0
1963,65.09771671826626,150.0
1964,62.62093653250775,150.0
1965,63.777089783281724,150.0
1966,64.08184984520123,150.0
1967,62.3935758513932,150.0
1968,63.18691950464396,150.0
1969,61.600232198142415,150.0
1970,58.07856037151702,150.0
1971,61.30030959752321,150.0
1972,62.32585139318886,150.0
1973,65.45568885448917,150.0
1974,59.375,150.0
1975,63.69485294117646,150.0
1976,66.45220588235294,150.0
1977,63.191756965944265,150.0
1978,65.67821207430339,150.0
1979,62.27263931888544,150.0
1980,59.64106037151703,150.0
1981,65.40731424148606,150.0
1982,61.15518575851394,150.0
1983,60.76818885448917,150.0
1984,63.15789473684211,150.0
1985,61.561532507739926,150.0
1986,62.171052631578945,150.0
1987,64.55108359133128,150.0
1988,67.1342879256966,150.0
1989,60.92298761609907,150.0
1990,62.4516253869969,150.0
1991,64.67202012383903,150.0
1992,58.68324303405573,150.0
1993,62.804760061919495,150.0
1994,62.717685758513944,150.0
1995,63.767414860681114,150.0
1996,61.387383900928796,150.0
1997,62.838622291021665,150.0
1998,63.88835139318885,150.0
1999,61.79373065015481,150.0
2000,62.296826625387,150.0
2001,64.265673374613,150.0
2002,63.90286377708978,150.0
2003,60.3328173374613,150.0
2004,64.25116099071208,150.0
2005,62.620936532507734,150.0
2006,63.58359133126935,150.0
2007,62.46613777089783,150.0
2008,62.38390092879257,150.0
2009,59.54431114551083,150.0
2010,64.75909442724458,150.0
2011,68.11629256965945,150.0
2012,55.611455108359124,150.0
2013,62.15170278637771,150.0
2014,62.36455108359135,150.0
2015,60.618227554179555,150.0
2016,63.0563080495356,150.0
2017,65.91524767801859,150.0
2018,68.02438080495355,150.0
2019,61.15518575851394,150.0
2020,60.17801857585139,150.0
2021,62.48548761609908,150.0
2022,60.75367647058823,150.0
2023,63.42395510835913,150.0
2024,60.00386996904025,150.0
2025,62.73703560371517,150.0
2026,59.829721362229094,150.0
2027,64.68169504643963,150.0
2028,61.87596749226006,150.0
2029,61.72116873065016,150.0
2030,57.93343653250774,150.0
2031,58.91544117647059,150.0
2032,62.51451238390093,150.0
2033,63.767414860681114,150.0
2034,60.70046439628483,150.0
2035,62.016253869969034,150.0
2036,60.110294117647065,150.0
2037,62.32585139318886,150.0
2038,63.3030185758514,150.0
2039,63.20626934984521,150.0
2040,60.579527863777095,150.0
2041,66.57314241486068,150.0
2042,63.14821981424149,150.0
2043,62.82894736842107,150.0
2044,63.438467492260074,150.0
2045,61.34868421052631,150.0
2046,64.98161764705883,150.0
2047,63.109520123839005,150.0
2048,64.14957430340559,150.0
2049,61.73084365325077,150.0
2050,62.654798761609904,150.0
2051,60.91815015479876,150.0
2052,64.6623452012384,150.0
2053,60.845588235294116,150.0
2054,62.97890866873064,150.0
2055,60.63757739938081,150.0
2056,66.68924148606813,150.0
2057,64.23181114551085,150.0
2058,62.75154798761611,150.0
2059,62.07430340557274,150.0
2060,61.15518575851394,150.0
2061,65.44601393188856,150.0
2062,67.4874226006192,150.0
2063,60.97136222910217,150.0
2064,64.76393188854489,150.0
2065,56.327399380804955,150.0
2066,60.874613003095966,150.0
2067,60.94233746130032,150.0
2068,64.20278637770899,150.0
2069,66.96013931888547,150.0
2070,63.69485294117647,150.0
2071,61.880804953560364,150.0
2072,62.843459752321984,150.0
2073,63.09984520123838,150.0
2074,62.59674922600619,150.0
2075,60.98103715170278,150.0
2076,60.153831269349844,150.0
2077,58.64938080495357,150.0
2078,58.91060371517028,150.0
2079,67.47291021671826,150.0
2080,64.16408668730651,150.0
2081,62.91118421052631,150.0
2082,66.83436532507737,150.0
2083,60.32797987616101,150.0
2084,63.35139318885447,150.0
2085,63.90770123839008,150.0
2086,63.003095975232206,150.0
2087,63.525541795665625,150.0
2088,63.3030185758514,150.0
2089,60.20704334365325,150.0
2090,61.60506965944272,150.0
2091,61.15034829721361,150.0
2092,61.218072755417964,150.0
2093,61.12616099071207,150.0
2094,60.3328173374613,150.0
2095,70.4189241486068,150.0
2096,62.34036377708979,150.0
2097,62.31133900928793,150.0
2098,57.23200464396285,150.0
2099,59.916795665634666,150.0
2100,61.7405185758514,150.0
2101,62.8095975232198,150.0
2102,61.6486068111455,150.0
2103,64.70588235294117,150.0
2104,58.93479102167183,150.0
2105,60.75367647058823,150.0
2106,54.19407894736842,150.0
2107,64.24632352941177,150.0
2108,60.579527863777095,150.0
2109,70.19156346749226,150.0
2110,64.22697368421052,150.0
2111,61.280959752321984,150.0
2112,62.89667182662538,150.0
2113,59.06056501547988,150.0
2114,64.17859907120744,150.0
2115,62.86280959752321,150.0
2116,60.11513157894736,150.0
2117,61.72600619195047,150.0
2118,63.14821981424149,150.0
2119,62.54837461300309,150.0
2120,57.04818111455108,150.0
2121,62.01625386996904,150.0
2122,63.81578947368419,150.0
2123,64.33339783281734,150.0
2124,59.960332817337466,150.0
2125,61.72116873065016,150.0
2126,60.255417956656345,150.0
2127,59.25890092879257,150.0
2128,65.62016253869967,150.0
2129,64.28018575851394,150.0
2130,64.97678018575851,150.0
2131,58.52844427244582,150.0
2132,67.28424922600618,150.0
2133,65.17995356037152,150.0
2134,61.01489938080495,150.0
2135,63.44330495356038,150.0
2136,65.44601393188856,150.0
2137,61.21807275541795,150.0
2138,59.336300309597526,150.0
2139,58.359133126934985,150.0
2140,56.22581269349845,150.0
2141,63.23045665634674,150.0
2142,63.15789473684211,150.0
2143,65.50406346749227,150.0
2144,61.39222136222911,150.0
2145,64.09636222910217,150.0
2146,56.994969040247675,150.0
2147,62.509674922600624,150.0
2148,60.632739938080505,150.0
2149,62.81927244582043,150.0
2150,54.88583591331269,150.0
2151,60.211880804953566,150.0
2152,62.46130030959751,150.0
2153,58.020510835913306,150.0
2154,62.81443498452011,150.0
2155,62.233939628482965,150.0
2156,61.06811145510837,150.0
2157,62.20975232198142,150.0
2158,63.96091331269349,150.0
2159,64.38177244582045,150.0
2160,58.67356811145511,150.0
2161,59.81520897832817,150.0
2162,57.29972910216719,150.0
2163,59.71845975232198,150.0
2164,65.0686919504644,150.0
2165,60.4392414860681,150.0
2166,62.83378482972136,150.0
2167,63.960913312693506,150.0
2168,62.214589783281724,150.0
2169,68.00986842105263,150.0
2170,63.18208204334364,150.0
2171,63.786764705882355,150.0
2172,62.58223684210527,150.0
2173,59.83455882352942,150.0
2174,60.67143962848298,150.0
2175,64.08184984520125,150.0
2176,66.39415634674924,150.0
2177,64.25116099071205,150.0
2178,65.31540247678015,150.0
2179,65.02999226006193,150.0
2180,58.465557275541805,150.0
2181,61.63893188854489,150.0
2182,63.6609907120743,150.0
2183,58.45104489164086,150.0
2184,64.30921052631578,150.0
2185,64.53173374613004,150.0
2186,58.66389318885448,150.0
2187,59.81037151702786,150.0
2188,62.156540247678016,150.0
2189,65.03482972136223,150.0
2190,65.25735294117646,150.0
2191,63.59810371517028,150.0
2192,66.5392801857585,150.0
2193,65.8813854489164,150.0
2194,62.64512383900929,150.0
2195,61.38254643962849,150.0
2196,65.10255417956658,150.0
2197,61.885642414860676,150.0
2198,62.35487616099073,150.0
2199,61.184210526315795,150.0
2200,65.7797987616099,150.0
2201,61.60506965944272,150.0
2202,59.031540247678016,150.0
2203,59.268575851393194,150.0
2204,61.44059597523219,150.0
2205,63.76257739938081,150.0
2206,62.31133900928793,150.0
2207,61.0874613003096,150.0
2208,59.84423374613003,150.0
2209,62.94504643962848,150.0
2210,56.12906346749226,150.0
2211,60.690789473684205,150.0
2212,61.50832043343653,150.0
2213,60.56985294117647,150.0
2214,59.00735294117647,150.0
2215,64.25599845201238,150.0
2216,60.390866873065015,150.0
2217,59.17182662538699,150.0
2218,66.82952786377709,150.0
2219,61.46478328173374,150.0
2220,60.95201238390092,150.0
2221,65.74593653250773,150.0
2222,64.03347523219814,150.0
2223,64.28986068111455,150.0
2224,63.08049535603715,150.0
2225,60.49729102167183,150.0
2226,68.03405572755419,150.0
2227,57.58513931888545,150.0
2228,63.15789473684211,150.0
2229,66.87790247678016,150.0
2230,61.28579721362229,150.0
2231,65.86203560371517,150.0
2232,63.21110681114551,150.0
2233,63.86900154798761,150.0
2234,59.084752321981426,150.0
2235,61.47929566563468,150.0
2236,69.9642027863777,150.0
2237,66.14744582043345,150.0
2238,62.59191176470587,150.0
2239,64.9719427244582,150.0
2240,64.60913312693499,150.0
2241,66.36996904024767,150.0
2242,61.04392414860683,150.0
2243,64.49787151702787,150.0
2244,66.37964396284828,150.0
2245,66.2780572755418,150.0
2246,62.722523219814256,150.0
2247,65.47987616099071,150.0
2248,63.00793343653251,150.0
2249,60.45859133126935,150.0
2250,62.06462848297213,150.0
2251,58.61551857585139,150.0
2252,64.41079721362229,150.0
2253,63.64164086687306,150.0
2254,64.23664860681117,150.0
2255,65.23316563467495,150.0
2256,59.29276315789474,150.0
2257,62.60642414860681,150.0
2258,64.55108359133129,150.0
2259,62.57256191950464,150.0
2260,61.56153250773994,150.0
2261,65.14125386996905,150.0
2262,64.19794891640868,150.0
2263,60.74883900928793,150.0
2264,62.42743808049536,150.0
2265,63.394930340557266,150.0
2266,62.46613777089783,150.0
2267,62.39357585139319,150.0
2268,63.53521671826625,150.0
2269,59.09442724458205,150.0
2270,61.856617647058826,150.0
2271,62.25328947368422,150.0
2272,63.975425696594435,150.0
2273,56.124226006191954,150.0
2274,63.28850619195047,150.0
2275,65.64918730650156,150.0
2276,60.932662538699695,150.0
2277,68.22755417956655,150.0
2278,64.40595975232198,150.0
2279,60.835913312693506,150.0
2280,62.71768575851394,150.0
2281,61.522832817337466,150.0
2282,62.07430340557274,150.0
2283,64.91873065015477,150.0
2284,60.966524767801864,150.0
2285,61.40673374613002,150.0
2286,62.57739938080495,150.0
2287,62.66447368421053,150.0
2288,60.28444272445821,150.0
2289,64.44949690402478,150.0
2290,63.86900154798762,150.0
2291,62.38873839009288,150.0
2292,56.16292569659443,150.0
2293,62.48065015479876,150.0
2294,58.789667182662534,150.0
2295,59.5249613003096,150.0
2296,62.02592879256967,150.0
2297,62.65479876160992,150.0
2298,61.25193498452012,150.0
2299,59.142801857585134,150.0
2300,59.684597523219814,150.0
2301,58.87674148606811,150.0
2302,63.71420278637772,150.0
2303,60.676277089783284,150.0
2304,63.12403250773994,150.0
2305,66.81501547987615,150.0
2306,65.50406346749227,150.0
2307,62.36938854489164,150.0
2308,62.761222910216716,150.0
2309,63.60777863777089,150.0
2310,63.85448916408668,150.0
2311,62.3548761609907,150.0
2312,63.88835139318885,150.0
2313,65.45085139318884,150.0
2314,62.558049535603715,150.0
2315,64.9671052631579,150.0
2316,59.940982972136226,150.0
2317,58.56714396284829,150.0
2318,60.17801857585139,150.0
2319,62.01625386996904,150.0
2320,65.36861455108358,150.0
2321,63.709365325077414,150.0
2322,64.39144736842104,150.0
2323,62.780572755417964,150.0
2324,56.835332817337466,150.0
2325,59.297600619195045,150.0
2326,61.532507739938076,150.0
2327,60.308630030959755,150.0
2328,64.0141253869969,150.0
2329,59.11377708978328,150.0
2330,65.15092879256967,150.0
2331,65.76044891640868,150.0
2332,59.94582043343653,150.0
2333,65.62983746130031,150.0
2334,62.127515479876166,150.0
2335,64.672020123839,150.0
2336,62.591911764705884,150.0
2337,64.37693498452013,150.0
2338,59.62171052631579,150.0
2339,62.775735294117645,150.0
2340,62.074303405572756,150.0
2341,65.27186532507739,150.0
2342,60.56985294117647,150.0
2343,58.74129256965944,150.0
2344,61.851780185758514,150.0
2345,58.90576625386998,150.0
2346,62.46613777089783,150.0
2347,63.815789473684205,150.0
2348,61.40189628482972,150.0
2349,64.68653250773994,150.0
2350,59.03637770897833,150.0
2351,62.60642414860681,150.0
2352,67.68575851393189,150.0
2353,59.97968266253869,150.0
2354,64.52689628482973,150.0
2355,61.90982972136223,150.0
2356,62.72252321981424,150.0
2357,62.98374613003096,150.0
2358,63.13854489164087,150.0
2359,64.64783281733746,150.0
2360,63.2594814241486,150.0
2361,62.819272445820445,150.0
2362,63.511029411764696,150.0
2363,65.6298374613003,150.0
2364,59.90228328173375,150.0
2365,64.06250000000001,150.0
2366,63.109520123839005,150.0
2367,62.37906346749225,150.0
2368,60.17801857585138,150.0
2369,63.33204334365325,150.0
2370,65.08320433436533,150.0
2371,61.663119195046434,150.0
2372,59.59268575851394,150.0
2373,64.85100619195046,150.0
2374,67.02786377708978,150.0
2375,67.04721362229101,150.0
2376,67.10526315789473,150.0
2377,60.5843653250774,150.0
2378,60.71013931888545,150.0
2379,65.28637770897832,150.0
2380,58.85739164086687,150.0
2381,62.39841331269349,150.0
2382,63.31753095975232,150.0
2383,59.03637770897832,150.0
2384,67.40034829721361,150.0
2385,63.327205882352956,150.0
2386,68.0485681114551,150.0
2387,60.82623839009288,150.0
2388,58.99767801857585,150.0
2389,58.963815789473685,150.0
2390,57.788312693498455,150.0
2391,63.75773993808049,150.0
2392,59.97000773993808,150.0
2393,58.881578947368425,150.0
2394,61.51315789473685,150.0
2395,65.51857585139318,150.0
2396,58.378482972136226,150.0
2397,61.5421826625387,150.0
2398,62.58707430340558,150.0
2399,64.27051083591331,150.0
2400,65.74109907120744,150.0
2401,64.58978328173373,150.0
2402,61.15518575851394,150.0
2403,65.54276315789473,150.0
2404,63.26431888544891,150.0
2405,60.13448142414861,150.0
2406,60.79237616099071,150.0
2407,60.54082817337461,150.0
2408,62.19523993808049,150.0
2409,64.14473684210526,150.0
2410,57.817337461300305,150.0
2411,63.31753095975232,150.0
2412,60.057082043343655,150.0
2413,60.75851393188856,150.0
2414,61.36319659442726,150.0
2415,60.67627708978327,150.0
2416,62.43711300309598,150.0
2417,64.76393188854489,150.0
2418,57.096555727554176,150.0
2419,61.580882352941174,150.0
2420,61.12616099071207,150.0
2421,61.06811145510836,150.0
2422,62.59674922600619,150.0
2423,57.73026315789474,150.0
2424,59.04121517027864,150.0
2425,62.72736068111456,150.0
2426,67.64222136222911,150.0
2427,59.273413312693506,150.0
2428,63.288506191950454,150.0
2429,59.00735294117647,150.0
2430,62.13235294117646,150.0
2431,61.28095975232197,150.0
2432,61.827592879256976,150.0
2433,62.408088235294116,150.0
2434,65.83301083591331,150.0
2435,62.58223684210527,150.0
2436,62.529024767801864,150.0
2437,60.289280185758514,150.0
2438,60.8455882352941,150.0
2439,61.81308049535604,150.0
2440,65.82333591331268,150.0
2441,63.30301857585137,150.0
2442,68.02921826625388,150.0
2443,61.924342105263165,150.0
2444,61.01489938080495,150.0
2445,63.728715170278626,150.0
2446,61.556695046439636,150.0
2447,61.65344427244581,150.0
2448,60.7391640866873,150.0
2449,62.51934984520124,150.0
2450,62.81927244582043,150.0
2451,61.6921439628483,150.0
2452,66.234520123839,150.0
2453,61.16002321981424,150.0
2454,59.62171052631579,150.0
2455,64.39144736842105,150.0
2456,64.98645510835914,150.0
2457,59.52012383900929,150.0
2458,62.5,150.0
2459,66.03618421052632,150.0
2460,59.30727554179567,150.0
2461,59.12828947368421,150.0
2462,60.652089783281724,150.0
2463,62.07914086687305,150.0
2464,59.5830108359133,150.0
2465,60.06191950464397,150.0
2466,61.06327399380805,150.0
2467,62.32585139318885,150.0
2468,60.85042569659442,150.0
2469,64.54140866873065,150.0
2470,60.10545665634674,150.0
2471,61.556695046439636,150.0
2472,64.23664860681116,150.0
2473,61.99206656346749,150.0
2474,63.095007739938076,150.0
2475,63.3513931888545,150.0
2476,63.32720588235293,150.0
2477,61.25193498452012,150.0
2478,66.05553405572755,150.0
2479,62.67414860681115,150.0
2480,59.44756191950465,150.0
2481,61.83243034055728,150.0
2482,63.607778637770906,150.0
2483,57.91892414860682,150.0
2484,62.949883900928796,150.0
2485,65.45568885448917,150.0
2486,64.03347523219814,150.0
2487,63.59326625386998,150.0
2488,64.3140479876161,150.0
2489,62.79024767801858,150.0
2490,67.3374613003096,150.0
2491,63.94156346749225,150.0
2492,63.5110294117647,150.0
2493,62.495162538699695,150.0
2494,65.73626160990715,150.0
2495,63.20626934984519,150.0
2496,64.40112229102166,150.0
2497,64.26083591331269,150.0
2498,59.13796439628482,150.0
2499,65.11222910216718,150.0
2500,61.11164860681114,150.0
2501,63.5110294117647,150.0
2502,62.50967492260061,150.0
2503,59.03637770897832,150.0
2504,60.637577399380795,150.0
2505,56.17260061919506,150.0
2506,64.67685758513933,150.0
2507,62.01141640866872,150.0
2508,61.653444272445824,150.0
2509,57.37229102167182,150.0
2510,61.39705882352941,150.0
2511,63.49651702786379,150.0
2512,61.48413312693498,150.0
2513,58.75580495356036,150.0
2514,62.412925696594435,150.0
2515,61.571207430340564,150.0
2516,62.843459752321984,150.0
2517,64.48335913312694,150.0
2518,61.70181888544891,150.0
2519,64.28018575851394,150.0
2520,62.25812693498451,150.0
2521,64.14957430340556,150.0
2522,61.058436532507734,150.0
2523,62.166215170278626,150.0
2524,61.73084365325077,150.0
2525,63.88835139318885,150.0
2526,61.86145510835913,150.0
2527,65.82333591331269,150.0
2528,65.29605263157896,150.0
2529,58.51876934984521,150.0
2530,58.451044891640855,150.0
2531,64.67685758513932,150.0
2532,60.23123065015479,150.0
2533,63.752902476780186,150.0
2534,64.31404798761609,150.0
2535,61.78405572755419,150.0
2536,63.54972910216719,150.0
2537,65.48955108359134,150.0
2538,62.437113003095966,150.0
2539,64.79295665634675,150.0
2540,65.78463622291021,150.0
2541,60.44891640866872,150.0
2542,60.608552631578945,150.0
2543,61.68246904024767,150.0
2544,65.13641640866874,150.0
2545,62.18556501547988,150.0
2546,60.94717492260061,150.0
2547,59.25406346749225,150.0
2548,59.92647058823529,150.0
2549,61.861455108359145,150.0
2550,60.79237616099071,150.0
2551,65.14609133126935,150.0
2552,67.53095975232198,150.0
2553,61.208397832817326,150.0
2554,59.4765866873065,150.0
2555,65.55243808049535,150.0
2556,61.1938854489164,150.0
2557,64.35274767801857,150.0
2558,65.04934210526316,150.0
2559,63.801277089783284,150.0
2560,61.61474458204334,150.0
2561,67.89860681114551,150.0
2562,61.05359907120743,150.0
2563,63.12886996904026,150.0
2564,62.490325077399376,150.0
2565,66.71826625386997,150.0
2566,62.08881578947368,150.0
2567,60.5359907120743,150.0
2568,59.38951238390092,150.0
2569,61.27128482972136,150.0
2570,61.4889705882353,150.0
2571,62.34520123839008,150.0
2572,61.33417182662538,150.0
2573,61.295472136222905,150.0
2574,60.274767801857585,150.0
2575,67.06656346749224,150.0
2576,59.602360681114554,150.0
2577,63.86900154798761,150.0
2578,64.86551857585138,150.0
2579,58.649380804953566,150.0
2580,61.837267801857585,150.0
2581,59.67008513931888,150.0
2582,61.04392414860681,150.0
2583,62.97890866873066,150.0
2584,64.38177244582045,150.0
2585,65.06385448916407,150.0
2586,59.85390866873065,150.0
2587,66.36513157894736,150.0
2588,62.050116099071204,150.0
2589,62.13235294117646,150.0
2590,63.92705108359132,150.0
2591,64.01896284829722,150.0
2592,62.480650154798774,150.0
2593,64.35758513931887,150.0
2594,67.18266253869969,150.0
2595,60.25058049535604,150.0
2596,62.862809597523224,150.0
2597,60.7391640866873,150.0
2598,60.105456656346746,150.0
2599,61.609907120743024,150.0
2600,63.39009287925696,150.0
2601,65.4702012383901,150.0
2602,59.42337461300309,150.0
2603,62.77089783281734,150.0
2604,66.22000773993808,150.0
2605,59.12345201238391,150.0
2606,65.13641640866872,150.0
2607,60.81656346749225,150.0
2608,61.91466718266255,150.0
2609,60.41505417956655,150.0
2610,65.33958978328174,150.0
2611,64.38177244582042,150.0
2612,64.30921052631578,150.0
2613,66.64570433436532,150.0
2614,63.26915634674924,150.0
2615,63.82062693498454,150.0
2616,61.861455108359145,150.0
2617,61.06811145510836,150.0
2618,62.06462848297213,150.0
2619,58.238196594427244,150.0
2620,64.7736068111455,150.0
2621,68.203366873065,150.0
2622,62.50967492260061,150.0
2623,64.23664860681116,150.0
2624,63.61745356037153,150.0
2625,64.02863777089783,150.0
2626,67.0327012383901,150.0
2627,62.97407120743034,150.0
2628,63.74806501547988,150.0
2629,62.51934984520124,150.0
2630,61.10197368421051,150.0
2631,62.89667182662539,150.0
2632,61.904992260061924,150.0
2633,63.612616099071204,150.0
2634,63.17724458204334,150.0
2635,64.7203947368421,150.0
2636,64.95743034055727,150.0
2637,59.747484520123834,150.0
2638,64.89454334365325,150.0
2639,58.68808049535604,150.0
2640,60.5843653250774,150.0
2641,61.97271671826626,150.0
2642,61.79856811145511,150.0
2643,59.98935758513932,150.0
2644,60.07159442724459,150.0
2645,64.55592105263159,150.0
2646,60.5843653250774,150.0
2647,61.29547213622292,150.0
2648,64.7300696594427,150.0
2649,61.97271671826625,150.0
2650,64.47368421052632,150.0
2651,59.90228328173375,150.0
2652,62.22910216718266,150.0
2653,64.50754643962851,150.0
2654,63.346555727554176,150.0
2655,64.48335913312694,150.0
2656,61.33417182662539,150.0
2657,60.632739938080505,150.0
2658,65.12674148606811,150.0
2659,61.914667182662534,150.0
2660,64.04798761609906,150.0
2661,59.147639318885446,150.0
2662,64.15924922600618,150.0
2663,63.2691563467492,150.0
2664,64.50270897832817,150.0
2665,60.41021671826625,150.0
2666,64.09636222910218,150.0
2667,65.43150154798762,150.0
2668,63.5545665634675,150.0
2669,67.80669504643961,150.0
2670,61.503482972136226,150.0
2671,63.35139318885447,150.0
2672,61.91466718266253,150.0
2673,57.45452786377709,150.0
2674,63.41911764705881,150.0
2675,58.659055727554176,150.0
2676,62.13235294117647,150.0
2677,59.244388544891635,150.0
2678,62.00657894736843,150.0
2679,64.80746904024768,150.0
2680,60.99071207430341,150.0
2681,64.43498452012385,150.0
2682,64.53657120743034,150.0
2683,61.23742260061919,150.0
2684,63.49167956656347,150.0
2685,64.7203947368421,150.0
2686,63.143382352941174,150.0
2687,59.85390866873065,150.0
2688,61.585719814241486,150.0
2689,59.568498452012385,150.0
2690,62.25328947368422,150.0
2691,60.584365325077385,150.0
2692,62.81443498452013,150.0
2693,61.65828173374613,150.0
2694,63.16273219814243,150.0
2695,65.38796439628481,150.0
2696,63.20626934984521,150.0
2697,63.42395510835913,150.0
2698,64.55592105263158,150.0
2699,63.64164086687305,150.0
2700,65.6685371517028,150.0
2701,64.27534829721363,150.0
2702,66.1813080495356,150.0
2703,62.84829721362228,150.0
2704,62.291989164086694,150.0
2705,62.901509287925684,150.0
2706,59.54431114551084,150.0
2707,63.690015479876166,150.0
2708,60.898800309597526,150.0
2709,63.33688080495355,150.0
2710,64.68169504643964,150.0
2711,59.6797600619195,150.0
2712,56.965944272445824,150.0
2713,61.97755417956657,150.0
2714,66.4328560371517,150.0
2715,56.825657894736835,150.0
2716,64.7687693498452,150.0
2717,62.22910216718266,150.0
2718,57.82217492260062,150.0
2719,62.949883900928796,150.0
2720,66.3312693498452,150.0
2721,63.33204334365323,150.0
2722,61.01489938080495,150.0
2723,61.72600619195047,150.0
2724,58.939628482972125,150.0
2725,62.00657894736842,150.0
2726,62.127515479876166,150.0
2727,60.5359907120743,150.0
2728,60.037732198142415,150.0
2729,62.296826625387,150.0
2730,62.6983359133127,150.0
2731,60.134481424148596,150.0
2732,59.64106037151702,150.0
2733,58.102747678018574,150.0
2734,59.694272445820445,150.0
2735,60.42956656346749,150.0
2736,62.86764705882353,150.0
2737,65.11222910216716,150.0
2738,60.19253095975233,150.0
2739,63.409442724458195,150.0
2740,64.13989938080495,150.0
2741,57.04334365325078,150.0
2742,63.94640092879257,150.0
2743,66.45704334365325,150.0
2744,63.20626934984519,150.0
2745,63.32720588235293,150.0
2746,65.63951238390094,150.0
2747,61.4889705882353,150.0
2748,61.40673374613002,150.0
2749,64.9187306501548,150.0
2750,60.898800309597526,150.0
2751,61.726006191950454,150.0
2752,61.09713622291021,150.0
2753,61.145510835913306,150.0
2754,60.782701238390096,150.0
2755,58.857391640866865,150.0
2756,62.601586687306494,150.0
2757,61.213235294117645,150.0
2758,63.41428018575851,150.0
2759,65.72174922600618,150.0
2760,65.81366099071207,150.0
2761,65.31540247678018,150.0
2762,63.046633126935,150.0
2763,62.69349845201239,150.0
2764,58.58649380804953,150.0
2765,62.350038699690415,150.0
2766,57.39647832817338,150.0
2767,59.11861455108359,150.0
2768,58.39783281733745,150.0
2769,63.559404024767794,150.0
2770,64.32372291021673,150.0
2771,64.63332043343654,150.0
2772,59.670085139318886,150.0
2773,62.05979102167183,150.0
2774,68.02921826625388,150.0
2775,67.12945046439627,150.0
2776,63.12886996904026,150.0
2777,61.95820433436532,150.0
2778,62.14202786377708,150.0
2779,59.03637770897833,150.0
2780,64.13506191950465,150.0
2781,64.48819659442724,150.0
2782,60.50212848297213,150.0
2783,63.414280185758514,150.0
2784,63.225619195046434,150.0
2785,60.45859133126935,150.0
2786,64.55592105263158,150.0
2787,61.12132352941177,150.0
2788,60.9375,150.0
2789,61.21807275541795,150.0
2790,64.13022445820432,150.0
2791,65.25735294117648,150.0
2792,60.83107585139319,150.0
2793,61.18904798761611,150.0
2794,59.48626160990711,150.0
2795,64.88970588235293,150.0
2796,65.98780959752321,150.0
2797,63.05147058823528,150.0
2798,60.85042569659442,150.0
2799,62.17589009287925,150.0
2800,61.20356037151702,150.0
2801,68.73065015479878,150.0
2802,59.54431114551083,150.0
2803,62.27747678018577,150.0
2804,59.68943498452012,150.0
2805,58.95414086687306,150.0
2806,64.3188854489164,150.0
2807,61.232585139318886,150.0
2808,59.52979876160991,150.0
2809,65.49922600619195,150.0
2810,67.45839783281734,150.0
2811,60.03289473684211,150.0
2812,63.96091331269349,150.0
2813,61.827592879256976,150.0
2814,61.38738390092879,150.0
2815,63.08049535603715,150.0
2816,63.496517027863774,150.0
2817,66.437693498452,150.0
2818,62.37906346749225,150.0
2819,61.963041795665625,150.0
2820,64.92840557275542,150.0
2821,60.21188080495356,150.0
2822,62.65479876160992,150.0
2823,66.1329334365325,150.0
2824,60.00386996904025,150.0
2825,61.72600619195047,150.0
2826,59.39918730650155,150.0
2827,64.1157120743034,150.0
2828,60.511803405572756,150.0
2829,65.14609133126936,150.0
2830,59.15247678018575,150.0
2831,63.93188854489164,150.0
2832,61.309984520123834,150.0
2833,62.94504643962847,150.0
2834,63.86900154798761,150.0
2835,64.24148606811144,150.0
2836,62.016253869969056,150.0
2837,63.4578173374613,150.0
2838,63.42395510835913,150.0
2839,63.63196594427245,150.0
2840,57.67705108359133,150.0
2841,58.968653250774,150.0
2842,63.51586687306502,150.0
2843,65.65886222910214,150.0
2844,62.886996904024784,150.0
2845,61.40189628482972,150.0
2846,61.19388544891641,150.0
2847,62.11300309597523,150.0
2848,63.39009287925696,150.0
2849,64.00928792569661,150.0
2850,65.98780959752321,150.0
2851,65.64434984520122,150.0
2852,60.75367647058823,150.0
2853,62.461300309597526,150.0
2854,61.179373065015476,150.0
2855,61.34868421052632,150.0
2856,63.878676470588225,150.0
2857,59.568498452012385,150.0
2858,62.15170278637772,150.0
2859,64.49787151702787,150.0
2860,60.54082817337462,150.0
2861,61.895317337461314,150.0
2862,63.143382352941174,150.0
2863,63.88351393188856,150.0
2864,63.54005417956657,150.0
2865,58.639705882352935,150.0
2866,60.908475232198136,150.0
2867,63.046633126934985,150.0
2868,62.83862229102168,150.0
2869,60.96168730650156,150.0
2870,62.6983359133127,150.0
2871,59.14280185758515,150.0
2872,59.30243808049536,150.0
2873,64.06733746130033,150.0
2874,63.859326625387,150.0
2875,60.90847523219815,150.0
2876,65.90073529411765,150.0
2877,62.03560371517028,150.0
2878,61.26644736842107,150.0
2879,60.966524767801864,150.0
2880,61.948529411764696,150.0
2881,61.6921439628483,150.0
2882,62.766060371517035,150.0
2883,65.72658668730648,150.0
2884,56.869195046439636,150.0
2885,65.88622291021673,150.0
2886,63.00309597523219,150.0
2887,62.21942724458205,150.0
2888,57.6625386996904,150.0
2889,68.45975232198143,150.0
2890,59.907120743034056,150.0
2891,67.01335139318886,150.0
2892,62.42260061919505,150.0
2893,60.5843653250774,150.0
2894,60.20220588235294,150.0
2895,60.28444272445821,150.0
2896,63.065982972136226,150.0
2897,59.28308823529411,150.0
2898,64.38660990712073,150.0
2899,59.52012383900928,150.0
2900,65.07836687306501,150.0
2901,67.27941176470588,150.0
2902,61.764705882352956,150.0
2903,62.42260061919504,150.0
2904,64.202786377709,150.0
2905,62.229102167182674,150.0
2906,64.21246130030961,150.0
2907,60.057082043343655,150.0
2908,60.60371517027864,150.0
2909,64.85584365325076,150.0
2910,60.323142414860676,150.0
2911,57.111068111455104,150.0
2912,60.72465170278639,150.0
2913,61.09229876160992,150.0
2914,64.36726006191951,150.0
2915,59.56849845201238,150.0
2916,61.522832817337466,150.0
2917,58.16079721362229,150.0
2918,60.942337461300305,150.0
2919,60.724651702786375,150.0
2920,64.86551857585138,150.0
2921,66.3264318885449,150.0
2922,57.45452786377709,150.0
2923,61.12616099071209,150.0
2924,63.72871517027864,150.0
2925,65.5814628482972,150.0
2926,62.03560371517027,150.0
2927,64.42047213622291,150.0
2928,66.71342879256966,150.0
2929,64.7300696594427,150.0
2930,60.090944272445824,150.0
2931,62.97890866873064,150.0
2932,60.071594427244584,150.0
2933,62.6499613003096,150.0
2934,62.00657894736842,150.0
2935,61.40673374613002,150.0
2936,67.58417182662538,150.0
2937,61.924342105263165,150.0
2938,60.11996904024768,150.0
2939,59.752321981424146,150.0
2940,63.84481424148608,150.0
2941,60.26993034055728,150.0
2942,64.53657120743036,150.0
2943,60.34249226006191,150.0
2944,61.45510835913313,150.0
2945,64.74941950464395,150.0
2946,59.19601393188855,150.0
2947,60.03289473684212,150.0
2948,62.45162538699691,150.0
2949,60.323142414860676,150.0
2950,64.06733746130031,150.0
2951,63.19175696594428,150.0
2952,64.48335913312694,150.0
2953,63.003095975232206,150.0
2954,60.487616099071204,150.0
2955,61.08262383900929,150.0
2956,61.47445820433436,150.0
2957,63.9125386996904,150.0
2958,59.96033281733747,150.0
2959,60.93266253869968,150.0
2960,65.42666408668731,150.0
2961,60.46826625386996,150.0
2962,62.34036377708979,150.0
2963,62.64028637770898,150.0
2964,63.82546439628484,150.0
2965,61.25193498452012,150.0
2966,63.51102941176472,150.0
2967,58.93479102167183,150.0
2968,62.741873065015476,150.0
2969,61.522832817337466,150.0
2970,59.4765866873065,150.0
2971,60.357004643962846,150.0
2972,61.522832817337466,150.0
2973,63.003095975232206,150.0
2974,65.00096749226006,150.0
2975,64.6188080495356,150.0
2976,60.42956656346749,150.0
2977,62.316176470588246,150.0
2978,62.91602167182662,150.0
2979,61.77921826625387,150.0
2980,63.312693498452006,150.0
2981,64.32856037151703,150.0
2982,59.71362229102167,150.0
2983,62.58707430340558,150.0
2984,63.87383900928793,150.0
2985,61.09713622291022,150.0
2986,60.65692724458205,150.0
2987,62.1468653250774,150.0
2988,62.32585139318885,150.0
2989,59.57817337461301,150.0
2990,60.89396284829721,150.0
2991,64.812306501548,150.0
2992,58.85739164086688,150.0
2993,61.73084365325077,150.0
2994,61.687306501547994,150.0
2995,61.22291021671826,150.0
2996,62.70801083591332,150.0
2997,63.646478328173394,150.0
2998,63.56907894736842,150.0
2999,64.88003095975232,150.0
3000,61.10197368421053,150.0
3001,65.0251547987616,150.0
3002,60.29895510835913,150.0
3003,61.32933436532509,150.0
3004,62.0404411764706,150.0
3005,61.64376934984519,150.0
3006,62.69349845201239,150.0
3007,61.953366873065015,150.0
3008,58.789667182662534,150.0
3009,58.354295665634666,150.0
3010,60.88912538699691,150.0
3011,61.23742260061919,150.0
3012,62.41776315789474,150.0
3013,61.98722910216719,150.0
3014,62.722523219814256,150.0
3015,63.656153250774,150.0
3016,62.71284829721361,150.0
3017,64.15924922600618,150.0
3018,60.85042569659442,150.0
3019,57.212654798761605,150.0
3020,59.06540247678018,150.0
3021,59.200851393188856,150.0
3022,63.04663312693498,150.0
3023,61.53734520123838,150.0
3024,61.600232198142415,150.0
3025,62.0017414860681,150.0
3026,68.52263931888545,150.0
3027,66.03134674922599,150.0
3028,61.65828173374613,150.0
3029,66.2441950464396,150.0
3030,61.619582043343655,150.0
3031,63.041795665634666,150.0
3032,60.361842105263165,150.0
3033,58.96865325077399,150.0
3034,64.92356811145511,150.0
3035,59.04121517027863,150.0
3036,63.0079334365325,150.0
3037,63.9125386996904,150.0
3038,66.1861455108359,150.0
3039,64.70588235294117,150.0
3040,65.19446594427244,150.0
3041,66.92627708978328,150.0
3042,61.663119195046434,150.0
3043,65.09771671826627,150.0
3044,61.48413312693498,150.0
3045,63.58359133126936,150.0
3046,63.09500773993809,150.0
3047,62.71768575851394,150.0
3048,63.641640866873075,150.0
3049,59.70394736842105,150.0
3050,60.3811919504644,150.0
3051,59.69427244582044,150.0
3052,65.33958978328174,150.0
3053,55.722716718266255,150.0
3054,62.6499613003096,150.0
3055,63.17240712074304,150.0
3056,64.52205882352942,150.0
3057,65.2234907120743,150.0
3058,63.68517801857585,150.0
3059,56.356424148606806,150.0
3060,61.561532507739926,150.0
3061,63.423955108359145,150.0
3062,62.38873839009288,150.0
3063,63.93672600619195,150.0
3064,60.64725232198143,150.0
3065,63.19175696594428,150.0
3066,61.619582043343655,150.0
3067,58.6687306501548,150.0
3068,58.663893188854495,150.0
3069,65.50406346749226,150.0
3070,60.303792569659436,150.0
3071,65.31056501547988,150.0
3072,62.6064241486068,150.0
3073,64.63332043343654,150.0
3074,63.08049535603715,150.0
3075,61.22291021671826,150.0
3076,62.22910216718266,150.0
3077,56.60313467492261,150.0
3078,59.824883900928796,150.0
3079,61.953366873065015,150.0
3080,61.12132352941177,150.0
3081,64.13506191950465,150.0
3082,65.94427244582045,150.0
3083,60.85526315789474,150.0
3084,64.44949690402478,150.0
3085,59.08475232198142,150.0
3086,59.74264705882352,150.0
3087,64.93808049535605,150.0
3088,60.06675696594427,150.0
3089,59.960332817337466,150.0
3090,65.10739164086687,150.0
3091,58.189821981424146,150.0
3092,62.92085913312694,150.0
3093,62.470975232198164,150.0
3094,61.77438080495355,150.0
3095,58.75096749226006,150.0
3096,65.32023993808049,150.0
3097,60.89396284829722,150.0
3098,64.34791021671826,150.0
3099,59.33146284829722,150.0
3100,63.370743034055735,150.0
3101,63.656153250774,150.0
3102,63.79643962848298,150.0
3103,61.42124613003096,150.0
3104,65.2234907120743,150.0
3105,66.37480650154801,150.0
3106,64.77844427244581,150.0
3107,62.4613003095975,150.0
3108,61.813080495356026,150.0
3109,60.56985294117647,150.0
3110,64.10119969040248,150.0
3111,62.558049535603715,150.0
3112,57.22232972136223,150.0
3113,65.76528637770896,150.0
3114,58.644543343653254,150.0
3115,61.76470588235294,150.0
3116,63.390092879256976,150.0
3117,59.59268575851394,150.0
3118,65.50890092879257,150.0
3119,58.45104489164087,150.0
3120,64.76876934984523,150.0
3121,65.15092879256966,150.0
3122,62.780572755417964,150.0
3123,62.02592879256966,150.0
3124,59.48142414860681,150.0
3125,67.20201238390092,150.0
3126,60.424729102167184,150.0
3127,61.04392414860681,150.0
3128,62.369388544891656,150.0
3129,57.362616099071204,150.0
3130,61.21323529411766,150.0
3131,63.76257739938081,150.0
3132,63.27883126934983,150.0
3133,63.075657894736835,150.0
3134,66.20549535603715,150.0
3135,66.59732972136223,150.0
3136,66.36513157894737,150.0
3137,63.859326625387,150.0
3138,64.21729876160988,150.0
3139,68.43072755417957,150.0
3140,61.56636996904026,150.0
3141,62.9015092879257,150.0
3142,62.34036377708978,150.0
3143,61.79856811145511,150.0
3144,61.77921826625387,150.0
3145,64.58010835913313,150.0
3146,66.67472910216718,150.0
3147,61.421246130030966,150.0
3148,64.55108359133128,150.0
3149,60.87461300309598,150.0
3150,61.11648606811144,150.0
3151,62.14202786377711,150.0
3152,67.1875,150.0
3153,62.398413312693506,150.0
3154,66.35061919504643,150.0
3155,61.52283281733747,150.0
3156,64.45917182662538,150.0
3157,62.72252321981424,150.0
3158,62.80476006191951,150.0
3159,61.9920665634675,150.0
3160,61.06811145510836,150.0
3161,61.6969814241486,150.0
3162,62.0984907120743,150.0
3163,63.00309597523219,150.0
3164,65.41698916408669,150.0
3165,63.08533281733745,150.0
3166,65.23316563467492,150.0
3167,61.938854489164065,150.0
3168,63.90770123839008,150.0
3169,62.87732198142415,150.0
3170,63.54005417956657,150.0
3171,59.69910990712075,150.0
3172,59.86842105263158,150.0
3173,61.33417182662539,150.0
3174,64.53657120743036,150.0
3175,66.0845588235294,150.0
3176,60.39570433436532,150.0
3177,59.62654798761611,150.0
3178,59.65557275541795,150.0
3179,65.95878482972137,150.0
3180,64.89454334365325,150.0
3181,62.37906346749225,150.0
3182,65.24284055727557,150.0
3183,70.28347523219814,150.0
3184,61.38738390092879,150.0
3185,62.73703560371517,150.0
3186,62.57739938080496,150.0
3187,63.93188854489163,150.0
3188,59.40886222910216,150.0
3189,63.17240712074304,150.0
3190,65.32507739938083,150.0
3191,62.171052631578945,150.0
3192,65.35893962848297,150.0
3193,63.18208204334366,150.0
3194,64.34791021671828,150.0
3195,62.05979102167183,150.0
3196,59.0702399380805,150.0
3197,58.963815789473685,150.0
3198,64.52205882352939,150.0
3199,59.86842105263157,150.0
3200,61.57604489164087,150.0
3201,61.198722910216716,150.0
3202,60.77786377708978,150.0
3203,62.06946594427245,150.0
3204,60.45859133126934,150.0
3205,63.767414860681114,150.0
3206,63.69485294117647,150.0
3207,63.53521671826626,150.0
3208,64.00445046439629,150.0
3209,63.50135448916409,150.0
3210,66.3844814241486,150.0
3211,63.01277089783281,150.0
3212,64.4640092879257,150.0
3213,60.70046439628484,150.0
3214,65.63467492260061,150.0
3215,64.43014705882354,150.0
3216,64.17376160990712,150.0
3217,62.66447368421053,150.0
3218,65.48471362229103,150.0
3219,59.515286377708975,150.0
3220,60.61822755417957,150.0
3221,62.16621517027864,150.0
3222,62.95472136222911,150.0
3223,63.23045665634675,150.0
3224,60.48761609907121,150.0
3225,62.2436145510836,150.0
3226,61.98722910216717,150.0
3227,60.99554953560373,150.0
3228,58.218846749226,150.0
3229,63.02728328173374,150.0
3230,57.720588235294116,150.0
3231,62.30166408668733,150.0
3232,62.09365325077398,150.0
3233,61.222910216718276,150.0
3234,59.60719814241486,150.0
3235,62.108165634674926,150.0
3236,64.68169504643963,150.0
3237,61.93885448916409,150.0
3238,62.28231424148608,150.0
3239,60.23123065015479,150.0
3240,63.11435758513932,150.0
3241,60.41505417956657,150.0
3242,60.49729102167184,150.0
3243,64.78811919504645,150.0
3244,60.62306501547988,150.0
3245,59.970007739938076,150.0
3246,63.719040247678016,150.0
3247,60.86977554179565,150.0
3248,61.309984520123834,150.0
3249,63.457817337461314,150.0
3250,59.09442724458204,150.0
3251,61.924342105263165,150.0
3252,64.63332043343654,150.0
3253,65.41215170278636,150.0
3254,62.4032507739938,150.0
3255,63.970588235294116,150.0
3256,63.046633126934985,150.0
3257,62.94504643962848,150.0
3258,61.32933436532509,150.0
3259,63.22078173374613,150.0
3260,63.307856037151716,150.0
3261,60.54566563467491,150.0
3262,65.44601393188853,150.0
3263,64.24148606811146,150.0
3264,63.01277089783283,150.0
3265,66.31191950464395,150.0
3266,58.73645510835913,150.0
3267,65.89106037151703,150.0
3268,64.1640866873065,150.0
3269,63.63680340557277,150.0
3270,63.84481424148609,150.0
3271,63.496517027863774,150.0
3272,62.34520123839011,150.0
3273,55.804953560371516,150.0
3274,63.975425696594435,150.0
3275,66.03134674922602,150.0
3276,60.627902476780186,150.0
3277,61.43092105263158,150.0
3278,61.36803405572755,150.0
3279,57.59965170278639,150.0
3280,60.40054179566564,150.0
3281,63.60294117647059,150.0
3282,63.17724458204334,150.0
3283,60.7923761609907,150.0
3284,63.68034055727554,150.0
3285,63.35623065015481,150.0
3286,67.19717492260062,150.0
3287,60.76818885448917,150.0
3288,60.57469040247679,150.0
3289,66.17647058823529,150.0
3290,60.44891640866874,150.0
3291,59.07991486068112,150.0
3292,63.095007739938076,150.0
3293,64.95259287925694,150.0
3294,62.601586687306494,150.0
3295,61.42608359133126,150.0
3296,65.91524767801856,150.0
3297,62.91118421052632,150.0
3298,57.45936532507739,150.0
3299,65.22349071207432,150.0
3300,64.31404798761609,150.0
3301,62.17589009287925,150.0
3302,58.925116099071204,150.0
3303,65.1170665634675,150.0
3304,63.37074303405572,150.0
3305,62.89667182662541,150.0
3306,62.73703560371517,150.0
3307,65.04450464396285,150.0
3308,65.015479876161,150.0
3309,61.73568111455109,150.0
3310,61.50832043343653,150.0
3311,61.871130030959755,150.0
3312,63.119195046439636,150.0
3313,68.98703560371516,150.0
3314,64.1108746130031,150.0
3315,62.85797213622292,150.0
3316,62.596749226006175,150.0
3317,65.94427244582045,150.0
3318,67.86474458204333,150.0
3319,58.596168730650156,150.0
3320,60.41505417956655,150.0
3321,61.85661764705884,150.0
3322,62.67414860681114,150.0
3323,61.71633126934985,150.0
3324,62.93053405572756,150.0
3325,63.84481424148606,150.0
3326,61.35835913312694,150.0
3327,63.38041795665636,150.0
3328,61.750193498452006,150.0
3329,62.65963622291022,150.0
3330,60.88428792569659,150.0
3331,61.38254643962847,150.0
3332,66.72310371517027,150.0
3333,63.87383900928794,150.0
3334,63.95607585139317,150.0
3335,60.04256965944272,150.0
3336,63.02244582043343,150.0
3337,62.204914860681114,150.0
3338,64.33339783281733,150.0
3339,59.94582043343654,150.0
3340,68.71130030959752,150.0
3341,61.16486068111455,150.0
3342,58.813854489164086,150.0
3343,59.907120743034056,150.0
3344,61.32933436532509,150.0
3345,63.63196594427244,150.0
3346,67.80669504643961,150.0
3347,64.07701238390092,150.0
3348,63.3997678018576,150.0
3349,65.76044891640866,150.0
3350,60.13931888544892,150.0
3351,60.511803405572756,150.0
3352,62.828947368421055,150.0
3353,63.52554179566564,150.0
3354,63.34655572755419,150.0
3355,59.76199690402478,150.0
3356,64.13989938080496,150.0
3357,59.44272445820434,150.0
3358,63.8012770897833,150.0
3359,61.21807275541795,150.0
3360,62.68382352941177,150.0
3361,65.49922600619195,150.0
3362,66.5344427244582,150.0
3363,60.405379256965944,150.0
3364,64.97194272445819,150.0
3365,60.250580495356026,150.0
3366,61.10681114551083,150.0
3367,60.671439628482965,150.0
3368,68.73548761609906,150.0
3369,63.796439628482965,150.0
3370,65.95394736842105,150.0
3371,61.41157120743034,150.0
3372,64.80746904024765,150.0
3373,60.221555727554176,150.0
3374,55.47600619195046,150.0
3375,61.029411764705884,150.0
3376,63.182082043343655,150.0
3377,62.30650154798762,150.0
3378,62.25328947368422,150.0
3379,62.00657894736842,150.0
3380,62.630611455108344,150.0
3381,63.18208204334366,150.0
3382,66.61667956656346,150.0
3383,62.95955882352941,150.0
3384,65.46052631578947,150.0
3385,62.96439628482973,150.0
3386,62.751547987616114,150.0
3387,61.058436532507734,150.0
3388,59.641060371517035,150.0
3389,63.636803405572756,150.0
3390,58.38332043343652,150.0
3391,60.148993808049525,150.0
3392,63.18691950464396,150.0
3393,61.909829721362215,150.0
3394,65.10739164086688,150.0
3395,65.86687306501548,150.0
3396,63.41428018575853,150.0
3397,61.600232198142415,150.0
3398,61.9436919504644,150.0
3399,64.55592105263158,150.0
3400,67.19233746130033,150.0
3401,65.21381578947368,150.0
3402,61.803405572755416,150.0
3403,59.83455882352941,150.0
3404,59.036377708978335,150.0
3405,60.173181114551085,150.0
3406,65.29121517027863,150.0
3407,63.5545665634675,150.0
3408,59.50077399380805,150.0
3409,65.60081269349845,150.0
3410,59.52979876160991,150.0
3411,65.41698916408669,150.0
3412,66.67472910216718,150.0
3413,63.62229102167181,150.0
3414,60.21188080495356,150.0
3415,65.36861455108361,150.0
3416,65.80882352941177,150.0
3417,59.86842105263158,150.0
3418,61.532507739938076,150.0
3419,62.19523993808049,150.0
3420,63.970588235294116,150.0
3421,63.60777863777089,150.0
3422,63.67066563467494,150.0
3423,64.00445046439627,150.0
3424,61.99690402476781,150.0
3425,61.2470975232198,150.0
3426,64.23181114551085,150.0
3427,62.11784055727554,150.0
3428,62.15654024767803,150.0
3429,61.532507739938076,150.0
3430,63.815789473684205,150.0
3431,65.61048761609906,150.0
3432,64.33339783281734,150.0
3433,63.55456656346749,150.0
3434,61.06811145510836,150.0
3435,58.775154798761605,150.0
3436,62.38873839009288,150.0
3437,64.95259287925695,150.0
3438,58.43169504643963,150.0
3439,61.450270897832816,150.0
3440,61.58088235294116,150.0
3441,61.963041795665625,150.0
3442,62.224264705882355,150.0
3443,59.75232198142414,150.0
3444,58.97349071207431,150.0
3445,60.57952786377708,150.0
3446,63.81095201238389,150.0
3447,62.093653250774,150.0
3448,65.44117647058823,150.0
3449,63.399767801857585,150.0
3450,62.99342105263158,150.0
3451,59.43304953560372,150.0
3452,64.31888544891639,150.0
3453,66.80050309597524,150.0
3454,65.14609133126936,150.0
3455,61.866292569659436,150.0
3456,60.361842105263165,150.0
3457,62.93537151702787,150.0
3458,63.17724458204333,150.0
3459,60.71013931888544,150.0
3460,62.60642414860681,150.0
3461,62.96923374613004,150.0
3462,59.142801857585134,150.0
3463,61.01973684210526,150.0
3464,62.68382352941177,150.0
3465,64.24148606811146,150.0
3466,62.92569659442723,150.0
3467,63.31753095975233,150.0
3468,62.35971362229103,150.0
3469,65.83301083591331,150.0
3470,62.529024767801864,150.0
3471,65.47503869969042,150.0
3472,58.925116099071204,150.0
3473,61.39222136222911,150.0
3474,64.19794891640866,150.0
3475,64.4640092879257,150.0
3476,62.49516253869968,150.0
3477,61.18904798761609,150.0
3478,57.517414860681114,150.0
3479,64.37209752321981,150.0
3480,61.66795665634675,150.0
3481,60.82623839009288,150.0
3482,66.98916408668731,150.0
3483,62.95955882352941,150.0
3484,66.01199690402477,150.0
3485,62.461300309597526,150.0
3486,62.28231424148606,150.0
3487,61.47929566563468,150.0
3488,60.84075077399381,150.0
3489,61.82759287925696,150.0
3490,61.624419504643974,150.0
3491,61.150348297213625,150.0
3492,62.24361455108359,150.0
3493,62.06462848297213,150.0
3494,62.824109907120736,150.0
3495,62.91602167182663,150.0
3496,62.504837461300305,150.0
3497,65.95394736842105,150.0
3498,61.82275541795666,150.0
3499,65.4750386996904,150.0
3500,58.06404798761611,150.0
3501,65.08804179566563,150.0
3502,65.16544117647058,150.0
3503,62.38873839009287,150.0
3504,64.23181114551083,150.0
3505,63.41911764705881,150.0
3506,59.60236068111457,150.0
3507,63.491679566563455,150.0
3508,59.74264705882353,150.0
3509,62.886996904024784,150.0
3510,65.33475232198144,150.0
3511,64.08184984520125,150.0
3512,64.01896284829719,150.0
3513,63.84481424148608,150.0
3514,63.06114551083591,150.0
3515,67.29392414860682,150.0
3516,60.05224458204334,150.0
3517,63.815789473684205,150.0
3518,60.20220588235295,150.0
3519,61.76954334365325,150.0
3520,61.03424922600619,150.0
3521,63.35623065015481,150.0
3522,64.73974458204333,150.0
3523,61.232585139318886,150.0
3524,57.54643962848297,150.0
3525,62.05495356037152,150.0
3526,62.12267801857586,150.0
3527,61.948529411764696,150.0
3528,64.265673374613,150.0
3529,60.947174922600624,150.0
3530,61.934017027863774,150.0
3531,65.2283281733746,150.0
3532,59.73297213622291,150.0
3533,64.96710526315789,150.0
3534,61.39705882352941,150.0
3535,62.3500386996904,150.0
3536,63.56907894736842,150.0
3537,61.0342492260062,150.0
3538,66.45220588235294,150.0
3539,61.532507739938076,150.0
3540,66.0893962848297,150.0
3541,62.10332817337461,150.0
3542,64.53657120743034,150.0
3543,61.309984520123834,150.0
3544,61.914667182662534,150.0
3545,60.44891640866872,150.0
3546,59.55882352941177,150.0
3547,63.801277089783284,150.0
3548,61.2906346749226,150.0
3549,58.896091331269346,150.0
3550,58.14144736842105,150.0
3551,61.52767027863777,150.0
3552,65.89106037151703,150.0
3553,63.11919504643962,150.0
3554,67.66640866873065,150.0
3555,63.97058823529413,150.0
3556,65.47503869969039,150.0
3557,62.32585139318885,150.0
3558,59.98935758513932,150.0
3559,61.16002321981424,150.0
3560,65.8668730650155,150.0
3561,67.60835913312694,150.0
3562,63.20626934984519,150.0
3563,68.00019349845199,150.0
3564,62.00657894736842,150.0
3565,58.89609133126935,150.0
3566,64.44949690402476,150.0
3567,64.86068111455108,150.0
3568,59.18633900928793,150.0
3569,60.966524767801864,150.0
3570,67.31811145510837,150.0
3571,64.89938080495357,150.0
3572,61.392221362229094,150.0
3573,64.42530959752322,150.0
3574,64.23181114551085,150.0
3575,62.94504643962849,150.0
3576,65.47987616099071,150.0
3577,60.02321981424148,150.0
3578,62.85797213622292,150.0
3579,65.7701238390093,150.0
3580,66.9311145510836,150.0
3581,62.48548761609907,150.0
3582,60.36667956656347,150.0
3583,64.61880804953562,150.0
3584,61.05359907120743,150.0
3585,62.28231424148606,150.0
3586,60.124806501547994,150.0
3587,61.06327399380805,150.0
3588,59.83455882352941,150.0
3589,61.914667182662534,150.0
3590,62.886996904024784,150.0
3591,64.60913312693499,150.0
3592,65.05901702786376,150.0
3593,61.71633126934984,150.0
3594,65.25735294117648,150.0
3595,65.40731424148605,150.0
3596,64.73006965944273,150.0
3597,62.51934984520125,150.0
3598,59.32178792569659,150.0
3599,65.69272445820434,150.0
3600,60.43924148606811,150.0
3601,65.24284055727554,150.0
3602,63.92221362229102,150.0
3603,59.336300309597526,150.0
3604,58.68808049535604,150.0
3605,64.28502321981424,150.0
3606,61.522832817337466,150.0
3607,62.127515479876166,150.0
3608,62.68382352941177,150.0
3609,62.461300309597526,150.0
3610,60.661764705882355,150.0
3611,62.91602167182663,150.0
3612,57.92859907120743,150.0
3613,62.31133900928791,150.0
3614,65.00580495356037,150.0
3615,63.93672600619195,150.0
3616,58.049535603715164,150.0
3617,63.854489164086694,150.0
3618,64.88486842105263,150.0
3619,60.44891640866874,150.0
3620,63.467492260061924,150.0
3621,62.12751547987615,150.0
3622,62.74671052631578,150.0
3623,59.48626160990712,150.0
3624,67.99051857585141,150.0
3625,58.60584365325077,150.0
3626,64.74941950464395,150.0
3627,65.82817337461302,150.0
3628,60.92298761609907,150.0
3629,66.0893962848297,150.0
3630,65.78463622291022,150.0
3631,67.19233746130031,150.0
3632,59.902283281733745,150.0
3633,66.52960526315789,150.0
3634,58.28173374613003,150.0
3635,59.08958978328174,150.0
3636,60.284442724458195,150.0
3637,62.74187306501546,150.0
3638,62.67414860681115,150.0
3639,63.94640092879256,150.0
3640,63.738390092879264,150.0
3641,65.17995356037153,150.0
3642,59.25406346749226,150.0
3643,59.950657894736835,150.0
3644,62.9015092879257,150.0
3645,62.05495356037152,150.0
3646,65.28637770897832,150.0
3647,60.995549535603715,150.0
3648,61.64376934984519,150.0
3649,62.53386222910217,150.0
3650,60.642414860681114,150.0
3651,60.83591331269349,150.0
3652,61.63893188854489,150.0
3653,65.74593653250774,150.0
3654,62.30166408668732,150.0
3655,63.24496904024768,150.0
3656,61.576044891640855,150.0
3657,63.312693498452006,150.0
3658,60.3811919504644,150.0
3659,65.61532507739939,150.0
3660,64.7203947368421,150.0
3661,63.46749226006191,150.0
3662,60.95201238390093,150.0
3663,60.8310758513932,150.0
3664,61.13583591331268,150.0
3665,64.00445046439629,150.0
3666,63.01277089783281,150.0
3667,64.14473684210527,150.0
3668,62.5483746130031,150.0
3669,64.16892414860682,150.0
3670,62.63544891640868,150.0
3671,62.87248452012385,150.0
3672,67.61319659442725,150.0
3673,62.00657894736842,150.0
3674,65.48471362229101,150.0
3675,62.19040247678017,150.0
3676,58.71710526315788,150.0
3677,60.869775541795676,150.0
3678,63.636803405572756,150.0
3679,62.703173374613016,150.0
3680,63.815789473684205,150.0
3681,61.140673374613,150.0
3682,63.491679566563455,150.0
3683,59.413699690402474,150.0
3684,62.0017414860681,150.0
3685,64.43982198142416,150.0
3686,61.2470975232198,150.0
3687,62.91602167182664,150.0
3688,64.63815789473684,150.0
3689,61.18421052631578,150.0
3690,61.40673374613004,150.0
3691,61.585719814241486,150.0
3692,66.06520897832814,150.0
3693,58.25270897832817,150.0
3694,65.68788699690401,150.0
3695,63.036958204334375,150.0
3696,63.50135448916408,150.0
3697,61.99690402476781,150.0
3698,65.13641640866872,150.0
3699,60.95201238390093,150.0
3700,62.87248452012385,150.0
3701,64.25599845201239,150.0
3702,62.558049535603715,150.0
3703,62.67414860681115,150.0
3704,64.18827399380804,150.0
3705,62.862809597523224,150.0
3706,61.92434210526315,150.0
3707,66.30708204334367,150.0
3708,63.757739938080505,150.0
3709,62.20007739938081,150.0
3710,59.921633126934985,150.0
3711,58.43653250773995,150.0
3712,67.92763157894737,150.0
3713,63.24013157894736,150.0
3714,67.17782507739938,150.0
3715,63.530379256965944,150.0
3716,60.913312693498455,150.0
3717,60.61822755417957,150.0
3718,63.41911764705881,150.0
3719,62.1904024767802,150.0
3720,60.661764705882355,150.0
3721,65.5330882352941,150.0
3722,63.72387770897835,150.0
3723,62.13719040247679,150.0
3724,62.49032507739939,150.0
3725,63.36590557275543,150.0
3726,63.467492260061924,150.0
3727,63.00309597523219,150.0
3728,64.47852167182661,150.0
3729,56.28386222910217,150.0
3730,63.0514705882353,150.0
3731,59.74748452012383,150.0
3732,63.157894736842096,150.0
3733,60.327979876160995,150.0
3734,67.21652476780184,150.0
3735,63.196594427244584,150.0
3736,63.9512383900929,150.0
3737,61.23742260061919,150.0
3738,61.70665634674923,150.0
3739,66.66505417956657,150.0
3740,66.44736842105263,150.0
3741,61.97755417956655,150.0
3742,62.63061145510836,150.0
3743,61.9436919504644,150.0
3744,59.466911764705884,150.0
3745,59.05089009287925,150.0
3746,67.50193498452012,150.0
3747,61.74535603715169,150.0
3748,62.11784055727555,150.0
3749,59.273413312693506,150.0
3750,64.03831269349845,150.0
3751,59.69910990712075,150.0
3752,63.69969040247679,150.0
3753,63.312693498452006,150.0
3754,63.35139318885449,150.0
3755,63.733552631578945,150.0
3756,62.45646284829722,150.0
3757,59.452399380804934,150.0
3758,63.62712848297215,150.0
3759,63.79160216718266,150.0
3760,64.23664860681114,150.0
3761,64.63815789473685,150.0
3762,65.30572755417957,150.0
3763,60.82623839009287,150.0
3764,64.53657120743033,150.0
3765,62.01141640866872,150.0
3766,64.18827399380807,150.0
3767,64.69136996904024,150.0
3768,60.33765479876162,150.0
3769,60.56985294117647,150.0
3770,65.54276315789473,150.0
3771,62.53386222910217,150.0
3772,63.41428018575853,150.0
3773,62.83862229102165,150.0
3774,58.18014705882352,150.0
3775,61.34868421052631,150.0
3776,63.23529411764706,150.0
3777,65.39280185758514,150.0
3778,63.36590557275543,150.0
3779,64.62364551083591,150.0
3780,66.00715944272446,150.0
3781,61.116486068111456,150.0
3782,63.59326625386998,150.0
3783,65.36377708978328,150.0
3784,68.62422600619193,150.0
3785,57.95278637770898,150.0
3786,58.547794117647065,150.0
3787,62.562886996904034,150.0
3788,59.03154024767802,150.0
3789,65.29121517027863,150.0
3790,64.03347523219814,150.0
3791,67.45356037151703,150.0
3792,62.11784055727554,150.0
3793,60.89396284829722,150.0
3794,59.41369969040247,150.0
3795,66.94562693498453,150.0
3796,58.276896284829725,150.0
3797,63.15789473684211,150.0
3798,62.32585139318885,150.0
3799,58.528444272445824,150.0
3800,64.3769349845201,150.0
3801,63.81095201238389,150.0
3802,58.43169504643963,150.0
3803,60.55534055727554,150.0
3804,65.57662538699691,150.0
3805,61.22774767801858,150.0
3806,62.74671052631578,150.0
3807,61.305147058823515,150.0
3808,60.1296439628483,150.0
3809,61.595394736842096,150.0
3810,64.14957430340557,150.0
3811,62.857972136222905,150.0
3812,65.61048761609906,150.0
3813,63.81578947368422,150.0
3814,58.92027863777089,150.0
3815,68.73065015479877,150.0
3816,60.77302631578947,150.0
3817,63.54489164086687,150.0
3818,65.25251547987617,150.0
3819,60.29895510835913,150.0
3820,62.204914860681114,150.0
3821,59.04605263157896,150.0
3822,62.77089783281734,150.0
3823,58.586493808049546,150.0
3824,59.060565015479874,150.0
3825,62.11300309597523,150.0
3826,64.43014705882354,150.0
3827,63.92705108359134,150.0
3828,60.50212848297213,150.0
3829,64.90905572755418,150.0
3830,63.172407120743024,150.0
3831,64.52689628482972,150.0
3832,58.857391640866865,150.0
3833,61.900154798761605,150.0
3834,61.967879256965944,150.0
3835,65.66853715170278,150.0
3836,61.12132352941177,150.0
3837,60.656927244582036,150.0
3838,61.663119195046434,150.0
3839,62.137190402476776,150.0
3840,56.98529411764705,150.0
3841,59.93130804953561,150.0
3842,58.925116099071204,150.0
3843,63.515866873065015,150.0
3844,61.82759287925696,150.0
3845,60.74883900928791,150.0
3846,66.16679566563468,150.0
3847,66.17163312693499,150.0
3848,63.03695820433436,150.0
3849,65.21381578947367,150.0
3850,59.72813467492261,150.0
3851,64.38177244582043,150.0
3852,63.95607585139319,150.0
3853,60.090944272445824,150.0
3854,62.62093653250775,150.0
3855,61.78889318885449,150.0
3856,62.209752321981405,150.0
3857,58.170472136222905,150.0
3858,58.27689628482973,150.0
3859,63.859326625386984,150.0
3860,67.21168730650155,150.0
3861,59.4233746130031,150.0
3862,61.851780185758514,150.0
3863,58.929953560371516,150.0
3864,63.92705108359135,150.0
3865,64.76393188854489,150.0
3866,61.64860681114551,150.0
3867,62.94504643962848,150.0
3868,56.970781733746136,150.0
3869,65.89106037151703,150.0
3870,66.32159442724458,150.0
3871,64.468846749226,150.0
3872,61.208397832817354,150.0
3873,57.44485294117647,150.0
3874,64.67685758513932,150.0
3875,61.51799535603715,150.0
3876,60.134481424148596,150.0
3877,59.602360681114554,150.0
3878,60.43924148606811,150.0
3879,62.20975232198142,150.0
3880,62.06462848297213,150.0
3881,60.405379256965944,150.0
3882,64.78328173374614,150.0
3883,59.868421052631575,150.0
3884,64.55108359133128,150.0
3885,62.02592879256966,150.0
3886,58.402670278637764,150.0
3887,64.83165634674923,150.0
3888,61.4889705882353,150.0
3889,61.25193498452011,150.0
3890,58.838041795665646,150.0
3891,63.66582817337461,150.0
3892,65.15092879256966,150.0
3893,62.88215944272445,150.0
3894,65.56211300309596,150.0
3895,60.50696594427244,150.0
3896,62.61609907120743,150.0
3897,69.13699690402476,150.0
3898,65.2234907120743,150.0
3899,63.801277089783284,150.0
3900,65.37828947368422,150.0
3901,63.15789473684211,150.0
3902,59.718459752321984,150.0
3903,61.31482198142414,150.0
3904,62.65963622291024,150.0
3905,61.72116873065016,150.0
3906,57.96729876160991,150.0
3907,61.22774767801858,150.0
3908,61.64860681114551,150.0
3909,63.82546439628483,150.0
3910,59.51528637770898,150.0
3911,58.45104489164087,150.0
3912,62.83862229102168,150.0
3913,60.29895510835913,150.0
3914,68.30979102167183,150.0
3915,60.44891640866874,150.0
3916,61.967879256965944,150.0
3917,57.08688080495355,150.0
3918,61.271284829721374,150.0
3919,62.2436145510836,150.0
3920,64.68169504643963,150.0
3921,69.74651702786379,150.0
3922,62.43227554179566,150.0
3923,60.565015479876166,150.0
3924,62.33552631578947,150.0
3925,63.54005417956657,150.0
3926,65.7749613003096,150.0
3927,65.89106037151703,150.0
3928,62.48548761609907,150.0
3929,63.070820433436516,150.0
3930,66.40866873065016,150.0
3931,60.656927244582036,150.0
3932,63.849651702786375,150.0
3933,64.09636222910216,150.0
3934,62.64512383900929,150.0
3935,62.21458978328174,150.0
3936,58.87190402476781,150.0
3937,60.371517027863774,150.0
3938,61.45510835913313,150.0
3939,62.61609907120743,150.0
3940,65.66853715170276,150.0
3941,65.04934210526315,150.0
3942,59.375,150.0
3943,61.30514705882353,150.0
3944,62.79024767801858,150.0
3945,64.04315015479877,150.0
3946,61.247097523219814,150.0
3947,63.46265479876162,150.0
3948,63.59810371517027,150.0
3949,60.61339009287925,150.0
3950,64.07217492260062,150.0
3951,56.64183436532509,150.0
3952,59.95549535603715,150.0
3953,61.663119195046434,150.0
3954,63.07082043343653,150.0
3955,60.545665634674926,150.0
3956,62.137190402476776,150.0
3957,60.55534055727554,150.0
3958,56.65634674922601,150.0
3959,64.4591718266254,150.0
3960,60.34732972136223,150.0
3961,59.76199690402477,150.0
3962,64.54140866873067,150.0
3963,61.0342492260062,150.0
3964,61.38254643962848,150.0
3965,65.58630030959753,150.0
3966,65.58630030959753,150.0
3967,63.16756965944272,150.0
3968,58.60584365325077,150.0
3969,60.60855263157893,150.0
3970,63.89802631578949,150.0
3971,58.62519349845201,150.0
3972,63.182082043343655,150.0
3973,64.98161764705884,150.0
3974,62.1468653250774,150.0
3975,63.820626934984524,150.0
3976,62.93537151702785,150.0
3977,61.7453560371517,150.0
3978,61.33417182662539,150.0
3979,59.85874613003096,150.0
3980,63.1046826625387,150.0
3981,56.448335913312704,150.0
3982,64.03831269349844,150.0
3983,61.421246130030966,150.0
3984,61.7405185758514,150.0
3985,64.56075851393187,150.0
3986,66.11358359133128,150.0
3987,59.713622291021665,150.0
3988,60.511803405572756,150.0
3989,62.137190402476776,150.0
3990,63.375580495356054,150.0
3991,60.30379256965945,150.0
3992,61.46478328173375,150.0
3993,67.65189628482973,150.0
3994,63.361068111455126,150.0
3995,60.090944272445824,150.0
3996,62.38873839009288,150.0
3997,62.72252321981423,150.0
3998,63.62712848297213,150.0
3999,62.214589783281724,150.0
4000,61.57604489164087,150.0
4001,65.7797987616099,150.0
4002,62.37422600619195,150.0
4003,65.79914860681114,150.0
4004,58.27689628482972,150.0
4005,64.54140866873065,150.0
4006,65.7265866873065,150.0
4007,65.31540247678018,150.0
4008,64.30921052631578,150.0
4009,58.088235294117645,150.0
4010,63.63196594427245,150.0
4011,63.820626934984524,150.0
4012,61.846942724458195,150.0
4013,64.2124613003096,150.0
4014,60.18285603715171,150.0
4015,60.86010061919504,150.0
4016,64.04315015479877,150.0
4017,67.47291021671826,150.0
4018,65.94910990712073,150.0
4019,60.390866873065015,150.0
4020,69.19020897832816,150.0
4021,59.055727554179555,150.0
4022,59.14280185758515,150.0
4023,59.345975232198136,150.0
4024,63.5545665634675,150.0
4025,63.60294117647059,150.0
4026,65.7265866873065,150.0
4027,61.09713622291022,150.0
4028,63.37558049535604,150.0
4029,64.60913312693498,150.0
4030,59.887770897832816,150.0
4031,60.26025541795666,150.0
4032,63.57391640866872,150.0
4033,60.68595201238389,150.0
4034,63.477167182662534,150.0
4035,63.81095201238389,150.0
4036,59.936145510835914,150.0
4037,65.24767801857584,150.0
4038,58.818691950464384,150.0
4039,56.453173374613,150.0
4040,57.6625386996904,150.0
4041,62.799922600619205,150.0
4042,65.89106037151703,150.0
4043,60.913312693498455,150.0
4044,63.21110681114551,150.0
4045,58.98800309597523,150.0
4046,57.67705108359132,150.0
4047,64.69136996904024,150.0
4048,64.55108359133128,150.0
4049,64.98645510835912,150.0
4050,62.74187306501549,150.0
4051,59.98935758513931,150.0
4052,63.854489164086694,150.0
4053,62.983746130030966,150.0
4054,61.18904798761609,150.0
4055,62.80476006191951,150.0
4056,62.42743808049537,150.0
4057,57.38196594427244,150.0
4058,61.80824303405572,150.0
4059,62.80476006191951,150.0
4060,67.95665634674921,150.0
4061,63.82546439628483,150.0
4062,63.98993808049537,150.0
4063,58.37848297213622,150.0
4064,64.84133126934984,150.0
4065,61.392221362229094,150.0
4066,61.64860681114551,150.0
4067,66.06037151702785,150.0
4068,60.79237616099071,150.0
4069,58.38332043343654,150.0
4070,66.17647058823529,150.0
4071,70.35603715170278,150.0
4072,59.74748452012385,150.0
4073,64.08184984520123,150.0
4074,64.27534829721363,150.0
4075,65.20897832817337,150.0
4076,57.47387770897833,150.0
4077,62.761222910216716,150.0
4078,63.33204334365326,150.0
4079,63.13854489164087,150.0
4080,60.23123065015481,150.0
4081,62.891834365325074,150.0
4082,61.92917956656347,150.0
4083,65.21381578947368,150.0
4084,62.68866099071207,150.0
4085,61.600232198142415,150.0
4086,60.70046439628483,150.0
4087,60.98103715170279,150.0
4088,65.23800309597524,150.0
4089,63.99477554179566,150.0
4090,61.76954334365325,150.0
4091,62.925696594427244,150.0
4092,58.92027863777089,150.0
4093,59.17666408668731,150.0
4094,65.5234133126935,150.0
4095,64.02863777089784,150.0
4096,63.13370743034055,150.0
4097,61.672794117647044,150.0
4098,59.43304953560372,150.0
4099,62.97890866873064,150.0
4100,64.2608359133127,150.0
4101,63.559404024767794,150.0
4102,61.343846749226,150.0
4103,61.78889318885449,150.0
4104,62.799922600619205,150.0
4105,62.47097523219812,150.0
4106,62.146865325077385,150.0
4107,59.17666408668731,150.0
4108,65.79914860681113,150.0
4109,64.58494582043343,150.0
4110,60.52147832817337,150.0
4111,64.24148606811143,150.0
4112,63.48200464396285,150.0
4113,66.06037151702786,150.0
4114,63.438467492260074,150.0
4115,66.26838235294119,150.0
4116,64.65750773993807,150.0
4117,63.44330495356038,150.0
4118,60.076431888544896,150.0
4119,67.34713622291022,150.0
4120,60.782701238390096,150.0
4121,64.65750773993807,150.0
4122,63.2546439628483,150.0
4123,60.724651702786375,150.0
4124,62.55321207430341,150.0
4125,57.507739938080505,150.0
4126,64.12538699690401,150.0
4127,62.3500386996904,150.0
4128,63.230456656346725,150.0
4129,63.854489164086694,150.0
4130,63.215944272445824,150.0
4131,69.94969040247678,150.0
4132,60.90847523219815,150.0
4133,61.77921826625387,150.0
4134,63.41911764705884,150.0
4135,64.83165634674923,150.0
4136,61.88564241486068,150.0
4137,64.76393188854489,150.0
4138,62.02592879256966,150.0
4139,62.15654024767803,150.0
4140,64.98161764705883,150.0
4141,61.31482198142414,150.0
4142,62.886996904024784,150.0
4143,60.10061919504644,150.0
4144,57.14493034055728,150.0
4145,59.379837461300305,150.0
4146,66.05069659442725,150.0
4147,64.18343653250774,150.0
4148,63.394930340557266,150.0
4149,63.003095975232206,150.0
4150,62.74671052631578,150.0
4151,61.13099845201238,150.0
4152,62.45162538699691,150.0
4153,58.86222910216719,150.0
4154,61.84694272445821,150.0
4155,64.8655185758514,150.0
4156,60.65692724458205,150.0
4157,65.9249226006192,150.0
4158,61.93885448916408,150.0
4159,61.23742260061919,150.0
4160,62.53869969040246,150.0
4161,60.58920278637771,150.0
