sample_id,accuracy,window_size
0,57.70607585139319,50.0
1,56.10971362229102,50.0
2,59.3798374613003,50.0
3,62.05979102167183,50.0
4,58.455882352941174,50.0
5,58.513931888544896,50.0
6,59.87809597523219,50.0
7,56.62732198142415,50.0
8,58.96865325077399,50.0
9,56.017801857585134,50.0
10,63.40460526315789,50.0
11,58.29140866873064,50.0
12,57.430340557275535,50.0
13,53.763544891640876,50.0
14,58.49941950464396,50.0
15,57.83184984520124,50.0
16,57.517414860681114,50.0
17,55.86300309597522,50.0
18,61.90982972136223,50.0
19,57.12074303405573,50.0
20,58.04953560371517,50.0
21,57.86571207430342,50.0
22,53.35719814241486,50.0
23,58.93962848297213,50.0
24,54.953560371517035,50.0
25,59.002515479876166,50.0
26,60.724651702786375,50.0
27,57.47871517027864,50.0
28,57.97213622291022,50.0
29,52.55417956656347,50.0
30,58.03502321981424,50.0
31,56.70955882352941,50.0
32,56.82082043343652,50.0
33,54.31017801857585,50.0
34,57.69640092879257,50.0
35,57.328753869969034,50.0
36,55.800116099071204,50.0
37,57.36261609907121,50.0
38,55.572755417956664,50.0
39,59.70394736842106,50.0
40,56.56927244582044,50.0
41,57.938273993808046,50.0
42,56.98045665634674,50.0
43,57.198142414860676,50.0
44,60.67627708978327,50.0
45,64.09152476780186,50.0
46,63.64164086687306,50.0
47,58.88157894736842,50.0
48,57.42550309597523,50.0
49,53.966718266253864,50.0
50,59.31695046439628,50.0
51,57.875386996904034,50.0
52,56.11938854489165,50.0
53,59.37983746130031,50.0
54,57.86571207430341,50.0
55,56.86435758513932,50.0
56,60.60371517027864,50.0
57,60.550503095975245,50.0
58,61.01006191950466,50.0
59,60.67143962848298,50.0
60,56.18227554179567,50.0
61,59.04121517027864,50.0
62,56.356424148606806,50.0
63,61.01006191950464,50.0
64,58.67356811145511,50.0
65,62.79024767801857,50.0
66,57.285216718266255,50.0
67,59.66524767801858,50.0
68,61.943691950464384,50.0
69,57.93343653250774,50.0
70,53.8844814241486,50.0
71,55.35506965944272,50.0
72,59.49593653250774,50.0
73,55.093846749225996,50.0
74,60.207043343653254,50.0
75,59.85874613003096,50.0
76,54.40208978328174,50.0
77,58.189821981424146,50.0
78,58.75096749226006,50.0
79,57.38680340557275,50.0
80,59.21052631578948,50.0
81,57.498065015479874,50.0
82,57.44969040247677,50.0
83,55.495356037151694,50.0
84,56.98529411764706,50.0
85,56.97561919504644,50.0
86,57.3577786377709,50.0
87,54.919698142414866,50.0
88,54.682662538699695,50.0
89,60.67143962848298,50.0
90,57.94794891640867,50.0
91,56.49187306501548,50.0
92,53.966718266253864,50.0
93,58.7703173374613,50.0
94,53.55553405572754,50.0
95,62.61126160990712,50.0
96,60.56017801857585,50.0
97,62.81927244582043,50.0
98,55.62113003095975,50.0
99,59.13312693498452,50.0
100,58.22368421052631,50.0
101,55.92589009287926,50.0
102,62.350038699690415,50.0
103,61.3970588235294,50.0
104,62.12267801857586,50.0
105,58.997678018575854,50.0
106,59.72813467492261,50.0
107,57.57546439628482,50.0
108,64.66234520123838,50.0
109,59.05089009287926,50.0
110,58.359133126934985,50.0
111,57.5077399380805,50.0
112,58.55263157894737,50.0
113,60.8407507739938,50.0
114,51.78502321981424,50.0
115,55.64531733746129,50.0
116,57.88022445820433,50.0
117,57.56578947368422,50.0
118,56.762770897832816,50.0
119,54.89551083591331,50.0
120,57.483552631578945,50.0
121,57.13525541795667,50.0
122,54.81811145510835,50.0
123,59.22020123839009,50.0
124,57.31424148606811,50.0
125,58.204334365325074,50.0
126,56.96594427244582,50.0
127,53.46362229102168,50.0
128,57.14493034055727,50.0
129,54.14086687306502,50.0
130,57.58513931888544,50.0
131,60.61339009287925,50.0
132,56.17743808049536,50.0
133,62.89183436532509,50.0
134,59.79102167182663,50.0
135,57.62867647058823,50.0
136,57.07720588235295,50.0
137,60.75851393188853,50.0
138,56.675696594427244,50.0
139,56.796633126935,50.0
140,58.45104489164086,50.0
141,54.94872291021671,50.0
142,63.86900154798762,50.0
143,60.961687306501545,50.0
144,61.72116873065015,50.0
145,55.3405572755418,50.0
146,60.51664086687305,50.0
147,54.87616099071207,50.0
148,61.90982972136223,50.0
149,58.64938080495355,50.0
150,61.324496904024755,50.0
151,58.315595975232206,50.0
152,64.08184984520123,50.0
153,59.64589783281734,50.0
154,60.67627708978327,50.0
155,57.54160216718267,50.0
156,56.07101393188855,50.0
157,52.67995356037152,50.0
158,59.40402476780185,50.0
159,60.56017801857585,50.0
160,59.74264705882353,50.0
161,62.63544891640868,50.0
162,57.294891640866865,50.0
163,60.27476780185757,50.0
164,60.92298761609908,50.0
165,59.66524767801859,50.0
166,57.23200464396285,50.0
167,56.43866099071207,50.0
168,56.34674922600619,50.0
169,58.58165634674923,50.0
170,57.115905572755416,50.0
171,57.66737616099071,50.0
172,64.11571207430342,50.0
173,62.23393962848298,50.0
174,61.74535603715169,50.0
175,59.55882352941177,50.0
176,58.692917956656345,50.0
177,56.31288699690403,50.0
178,61.42608359133128,50.0
179,52.25425696594427,50.0
180,54.179566563467496,50.0
181,55.15673374613003,50.0
182,61.44543343653251,50.0
183,60.782701238390096,50.0
184,60.21188080495356,50.0
185,62.949883900928796,50.0
186,57.86571207430342,50.0
187,58.54779411764706,50.0
188,54.48916408668731,50.0
189,64.9042182662539,50.0
190,58.576818885448915,50.0
191,61.45510835913313,50.0
192,61.22291021671826,50.0
193,60.584365325077385,50.0
194,57.83184984520124,50.0
195,57.8076625386997,50.0
196,63.85448916408668,50.0
197,58.5187693498452,50.0
198,60.274767801857585,50.0
199,57.715750773993804,50.0
200,56.31288699690402,50.0
201,62.567724458204324,50.0
202,56.63215944272446,50.0
203,60.93266253869968,50.0
204,61.532507739938076,50.0
205,59.99419504643963,50.0
206,59.263738390092875,50.0
207,56.409636222910216,50.0
208,55.093846749226,50.0
209,56.728908668730654,50.0
210,54.97291021671827,50.0
211,58.93479102167183,50.0
212,63.467492260061924,50.0
213,55.20994582043345,50.0
214,60.352167182662534,50.0
215,58.70743034055728,50.0
216,63.74806501547987,50.0
217,60.80205108359132,50.0
218,62.77089783281734,50.0
219,56.51606037151703,50.0
220,58.688080495356026,50.0
221,57.94794891640866,50.0
222,54.353715170278626,50.0
223,57.87538699690402,50.0
224,57.46420278637771,50.0
225,59.52012383900928,50.0
226,56.56927244582044,50.0
227,56.36126160990711,50.0
228,61.93401702786379,50.0
229,59.15247678018575,50.0
230,60.47794117647059,50.0
231,64.64299535603718,50.0
232,58.84287925696594,50.0
233,58.77999226006192,50.0
234,58.40750773993807,50.0
235,62.48065015479876,50.0
236,64.5075464396285,50.0
237,58.968653250774004,50.0
238,57.28521671826625,50.0
239,60.32314241486068,50.0
240,60.33765479876162,50.0
241,59.00735294117647,50.0
242,60.67627708978327,50.0
243,63.11919504643964,50.0
244,61.580882352941174,50.0
245,61.05843653250775,50.0
246,61.84694272445821,50.0
247,56.767608359133135,50.0
248,59.99903250773994,50.0
249,60.51664086687306,50.0
250,56.63699690402477,50.0
251,59.10410216718266,50.0
252,56.27902476780186,50.0
253,59.5249613003096,50.0
254,58.8235294117647,50.0
255,60.11996904024768,50.0
256,60.4392414860681,50.0
257,57.057856037151694,50.0
258,60.240905572755416,50.0
259,59.781346749226,50.0
260,57.07236842105263,50.0
261,59.2250386996904,50.0
262,59.18150154798762,50.0
263,62.02109133126934,50.0
264,57.83184984520124,50.0
265,56.21130030959752,50.0
266,60.67143962848298,50.0
267,63.114357585139324,50.0
268,56.52089783281734,50.0
269,59.90228328173375,50.0
270,58.58165634674923,50.0
271,56.34191176470588,50.0
272,62.553212074303396,50.0
273,59.16215170278638,50.0
274,58.799342105263165,50.0
275,59.21536377708978,50.0
276,59.31211300309597,50.0
277,58.286571207430335,50.0
278,57.17395510835913,50.0
279,67.5503095975232,50.0
280,60.50696594427245,50.0
281,59.162151702786375,50.0
282,60.192530959752325,50.0
283,57.962461300309585,50.0
284,59.84423374613003,50.0
285,65.66853715170278,50.0
286,58.020510835913306,50.0
287,56.99013157894736,50.0
288,56.714396284829725,50.0
289,58.610681114551085,50.0
290,58.315595975232206,50.0
291,57.76412538699691,50.0
292,52.94601393188855,50.0
293,60.671439628482965,50.0
294,56.50638544891642,50.0
295,63.08049535603715,50.0
296,58.90576625386998,50.0
297,60.10545665634674,50.0
298,58.90092879256966,50.0
299,60.255417956656345,50.0
300,59.737809597523224,50.0
301,61.00038699690402,50.0
302,55.5921052631579,50.0
303,56.91756965944272,50.0
304,58.62035603715171,50.0
305,61.80824303405572,50.0
306,52.559017027863774,50.0
307,57.90441176470589,50.0
308,60.34249226006191,50.0
309,56.182275541795676,50.0
310,61.60506965944272,50.0
311,57.33359133126935,50.0
312,57.53192724458205,50.0
313,59.505611455108365,50.0
314,56.64667182662538,50.0
315,57.40131578947369,50.0
316,55.53405572755418,50.0
317,60.3860294117647,50.0
318,61.19388544891641,50.0
319,55.113196594427244,50.0
320,54.54721362229102,50.0
321,52.90247678018575,50.0
322,53.855456656346746,50.0
323,58.068885448916404,50.0
324,59.636222910216716,50.0
325,56.946594427244584,50.0
326,61.04392414860681,50.0
327,55.02128482972137,50.0
328,58.30108359133127,50.0
329,57.08688080495356,50.0
330,58.446207430340564,50.0
331,61.01489938080495,50.0
332,56.39512383900928,50.0
333,61.46478328173375,50.0
334,56.58862229102166,50.0
335,59.268575851393194,50.0
336,60.43924148606811,50.0
337,62.86764705882353,50.0
338,61.49864551083591,50.0
339,58.683243034055714,50.0
340,58.00116099071208,50.0
341,56.06133900928793,50.0
342,55.669504643962846,50.0
343,63.94156346749225,50.0
344,58.73645510835913,50.0
345,60.289280185758514,50.0
346,58.48006965944272,50.0
347,57.80282507739938,50.0
348,54.42627708978328,50.0
349,60.26025541795666,50.0
350,54.508513931888544,50.0
351,58.67356811145511,50.0
352,57.58513931888545,50.0
353,57.14976780185759,50.0
354,55.37925696594427,50.0
355,59.433049535603715,50.0
356,57.57546439628483,50.0
357,62.26780185758515,50.0
358,61.83243034055728,50.0
359,58.03502321981424,50.0
360,60.50696594427245,50.0
361,62.34036377708978,50.0
362,59.815208978328165,50.0
363,59.30243808049536,50.0
364,56.44349845201239,50.0
365,61.4889705882353,50.0
366,55.693691950464384,50.0
367,58.929953560371516,50.0
368,64.84133126934985,50.0
369,58.4655572755418,50.0
370,59.96033281733746,50.0
371,57.29972910216719,50.0
372,58.973490712074295,50.0
373,54.84713622291022,50.0
374,57.92376160990712,50.0
375,59.30727554179567,50.0
376,58.24303405572755,50.0
377,56.25000000000001,50.0
378,62.470975232198136,50.0
379,61.958204334365334,50.0
380,64.63332043343654,50.0
381,58.054373065015476,50.0
382,61.953366873065,50.0
383,59.95549535603715,50.0
384,62.379063467492266,50.0
385,59.737809597523224,50.0
386,61.75986842105262,50.0
387,56.54024767801858,50.0
388,58.43169504643963,50.0
389,55.91137770897832,50.0
390,59.10893962848297,50.0
391,53.125,50.0
392,62.88215944272446,50.0
393,60.66660216718266,50.0
394,58.44620743034056,50.0
395,56.10487616099072,50.0
396,55.234133126934985,50.0
397,61.43575851393189,50.0
398,57.92376160990712,50.0
399,56.903057275541805,50.0
400,61.67763157894736,50.0
401,61.663119195046434,50.0
402,60.531153250774,50.0
403,55.65015479876162,50.0
404,57.599651702786375,50.0
405,57.12074303405573,50.0
406,58.34462074303406,50.0
407,62.27747678018576,50.0
408,61.851780185758514,50.0
409,55.974264705882355,50.0
410,63.4578173374613,50.0
411,58.9202786377709,50.0
412,60.08610681114551,50.0
413,60.913312693498455,50.0
414,63.544891640866865,50.0
415,61.774380804953566,50.0
416,65.23316563467492,50.0
417,56.57410990712074,50.0
418,57.2561919504644,50.0
419,56.31288699690403,50.0
420,53.00890092879257,50.0
421,64.3575851393189,50.0
422,58.97832817337461,50.0
423,59.215363777089784,50.0
424,58.92511609907122,50.0
425,58.934791021671835,50.0
426,61.6002321981424,50.0
427,61.65828173374613,50.0
428,63.428792569659436,50.0
429,60.99071207430341,50.0
430,58.58649380804954,50.0
431,62.10816563467491,50.0
432,58.41718266253869,50.0
433,61.01489938080495,50.0
434,61.38254643962848,50.0
435,59.43788699690403,50.0
436,56.17743808049536,50.0
437,61.56153250773994,50.0
438,56.75793343653251,50.0
439,61.19388544891641,50.0
440,60.327979876160995,50.0
441,52.539667182662534,50.0
442,58.83804179566564,50.0
443,60.40054179566564,50.0
444,60.124806501547994,50.0
445,63.40460526315789,50.0
446,60.76335139318885,50.0
447,59.0702399380805,50.0
448,56.182275541795676,50.0
449,55.03095975232197,50.0
450,57.87054953560372,50.0
451,56.41447368421052,50.0
452,58.460719814241486,50.0
453,60.153831269349844,50.0
454,66.91176470588235,50.0
455,60.01354489164086,50.0
456,60.15866873065016,50.0
457,57.46420278637771,50.0
458,59.29276315789474,50.0
459,56.346749226006196,50.0
460,59.56366099071207,50.0
461,63.49651702786376,50.0
462,56.782120743034056,50.0
463,55.78560371517028,50.0
464,57.8125,50.0
465,61.532507739938076,50.0
466,60.44407894736842,50.0
467,60.38602941176472,50.0
468,54.600425696594414,50.0
469,60.94717492260061,50.0
470,58.43653250773993,50.0
471,60.48761609907121,50.0
472,61.590557275541805,50.0
473,61.363196594427244,50.0
474,58.88641640866873,50.0
475,57.61900154798762,50.0
476,60.82140092879256,50.0
477,58.3688080495356,50.0
478,59.873258513931894,50.0
479,55.58243034055728,50.0
480,59.25406346749225,50.0
481,60.947174922600624,50.0
482,58.53328173374613,50.0
483,55.92105263157895,50.0
484,62.538699690402474,50.0
485,65.55727554179568,50.0
486,63.312693498452006,50.0
487,55.82430340557275,50.0
488,57.21749226006192,50.0
489,58.90576625386997,50.0
490,55.37925696594428,50.0
491,57.768962848297214,50.0
492,57.92859907120743,50.0
493,60.8891253869969,50.0
494,56.31288699690403,50.0
495,61.924342105263165,50.0
496,57.8608746130031,50.0
497,59.43788699690402,50.0
498,58.765479876160995,50.0
499,60.40054179566564,50.0
500,59.631385448916404,50.0
501,61.64860681114551,50.0
502,59.49109907120744,50.0
503,59.597523219814235,50.0
504,59.336300309597526,50.0
505,58.61551857585139,50.0
506,58.20433436532508,50.0
507,60.216718266253864,50.0
508,58.3688080495356,50.0
509,53.07662538699691,50.0
510,58.557469040247675,50.0
511,52.97020123839009,50.0
512,59.64106037151702,50.0
513,55.33088235294116,50.0
514,59.72329721362229,50.0
515,58.625193498452006,50.0
516,59.17182662538699,50.0
517,53.2749613003096,50.0
518,58.494582043343655,50.0
519,61.6340944272446,50.0
520,58.33494582043343,50.0
521,59.849071207430335,50.0
522,57.73510061919505,50.0
523,58.99284055727554,50.0
524,58.828366873065015,50.0
525,61.958204334365334,50.0
526,58.073722910216716,50.0
527,59.515286377708975,50.0
528,58.591331269349844,50.0
529,62.18556501547988,50.0
530,56.39028637770898,50.0
531,57.25135448916409,50.0
532,56.932082043343655,50.0
533,57.39164086687307,50.0
534,58.28173374613002,50.0
535,53.77321981424148,50.0
536,57.58030185758514,50.0
537,60.71981424148606,50.0
538,62.11300309597523,50.0
539,61.68246904024768,50.0
540,59.42337461300309,50.0
541,59.316950464396285,50.0
542,58.32527089783282,50.0
543,55.079334365325074,50.0
544,61.537345201238395,50.0
545,56.68537151702785,50.0
546,54.53270123839009,50.0
547,59.108939628482965,50.0
548,59.858746130030966,50.0
549,63.032120743034056,50.0
550,60.54082817337462,50.0
551,60.047407120743024,50.0
552,60.51664086687306,50.0
553,55.31153250773993,50.0
554,59.128289473684205,50.0
555,58.89609133126935,50.0
556,54.169891640866865,50.0
557,64.37693498452012,50.0
558,59.37983746130031,50.0
559,61.44059597523219,50.0
560,61.69698142414862,50.0
561,58.001160990712066,50.0
562,61.198722910216716,50.0
563,63.414280185758514,50.0
564,61.024574303405565,50.0
565,59.200851393188856,50.0
566,56.569272445820445,50.0
567,58.731617647058826,50.0
568,62.50967492260061,50.0
569,57.706075851393194,50.0
570,62.48548761609908,50.0
571,63.215944272445824,50.0
572,58.659055727554176,50.0
573,60.057082043343655,50.0
574,62.33068885448918,50.0
575,63.00793343653251,50.0
576,54.99226006191951,50.0
577,59.399187306501545,50.0
578,56.588622291021665,50.0
579,61.03424922600619,50.0
580,59.732972136222905,50.0
581,59.50077399380805,50.0
582,64.75425696594428,50.0
583,59.41369969040248,50.0
584,61.503482972136226,50.0
585,58.39299535603715,50.0
586,55.91137770897834,50.0
587,58.90092879256966,50.0
588,68.1453173374613,50.0
589,60.06675696594428,50.0
590,54.17472910216719,50.0
591,61.914667182662534,50.0
592,55.877515479876166,50.0
593,52.45743034055728,50.0
594,56.81598297213623,50.0
595,60.371517027863774,50.0
596,58.320433436532504,50.0
597,61.247097523219814,50.0
598,59.873258513931894,50.0
599,53.550696594427244,50.0
600,56.3999613003096,50.0
601,55.5437306501548,50.0
602,56.59829721362229,50.0
603,57.78831269349844,50.0
604,57.09655572755418,50.0
605,58.51393188854488,50.0
606,56.26451238390093,50.0
607,58.63003095975233,50.0
608,60.642414860681114,50.0
609,57.773800309597526,50.0
610,58.32527089783282,50.0
611,61.653444272445824,50.0
612,61.116486068111456,50.0
613,60.37151702786379,50.0
614,55.18092105263158,50.0
615,59.631385448916404,50.0
616,58.3688080495356,50.0
617,58.82352941176471,50.0
618,59.52979876160991,50.0
619,60.91815015479876,50.0
620,54.29082817337461,50.0
621,55.08900928792569,50.0
622,61.909829721362215,50.0
623,55.771091331269346,50.0
624,55.78076625386997,50.0
625,60.39570433436532,50.0
626,58.5719814241486,50.0
627,59.017027863777095,50.0
628,54.6391253869969,50.0
629,61.256772445820445,50.0
630,62.89667182662538,50.0
631,55.90654024767802,50.0
632,53.81191950464397,50.0
633,61.039086687306494,50.0
634,56.43382352941177,50.0
635,61.184210526315795,50.0
636,62.233939628482965,50.0
637,54.09732972136222,50.0
638,62.22910216718266,50.0
639,58.102747678018574,50.0
640,55.596942724458195,50.0
641,59.549148606811144,50.0
642,58.96381578947368,50.0
643,54.98742260061919,50.0
644,60.90847523219815,50.0
645,61.13583591331271,50.0
646,62.23877708978327,50.0
647,58.760642414860676,50.0
648,58.402670278637764,50.0
649,53.00406346749226,50.0
650,56.10971362229103,50.0
651,57.435178018575854,50.0
652,61.17453560371517,50.0
653,54.09249226006192,50.0
654,64.25599845201238,50.0
655,58.494582043343655,50.0
656,60.5843653250774,50.0
657,59.515286377708975,50.0
658,68.55166408668731,50.0
659,57.976973684210535,50.0
660,56.72407120743033,50.0
661,53.16369969040248,50.0
662,58.4655572755418,50.0
663,60.55050309597523,50.0
664,60.69078947368422,50.0
665,57.735100619195045,50.0
666,57.899574303405565,50.0
667,63.16273219814243,50.0
668,60.898800309597526,50.0
669,54.09249226006192,50.0
670,57.0530185758514,50.0
671,56.30804953560371,50.0
672,58.23335913312693,50.0
673,55.52438080495355,50.0
674,59.97000773993808,50.0
675,61.41640866873065,50.0
676,54.25212848297213,50.0
677,63.153057275541805,50.0
678,55.50019349845201,50.0
679,60.11513157894736,50.0
680,60.11029411764706,50.0
681,57.95278637770898,50.0
682,57.78347523219814,50.0
683,60.85526315789473,50.0
684,60.11996904024768,50.0
685,54.87616099071207,50.0
686,58.944465944272444,50.0
687,53.96671826625387,50.0
688,62.49516253869971,50.0
689,61.5421826625387,50.0
690,62.795085139318886,50.0
691,57.773800309597526,50.0
692,60.565015479876166,50.0
693,60.0812693498452,50.0
694,54.4891640866873,50.0
695,55.200270897832816,50.0
696,64.00445046439629,50.0
697,59.1766640866873,50.0
698,57.502902476780186,50.0
699,58.509094427244584,50.0
700,57.54643962848297,50.0
701,61.658281733746115,50.0
702,62.38873839009287,50.0
703,54.95839783281734,50.0
704,60.50212848297215,50.0
705,56.86919504643963,50.0
706,58.80417956656347,50.0
707,58.93962848297214,50.0
708,62.42743808049537,50.0
709,60.50212848297213,50.0
710,61.82275541795666,50.0
711,61.76954334365325,50.0
712,53.9812306501548,50.0
713,59.60719814241486,50.0
714,59.829721362229094,50.0
715,57.02399380804954,50.0
716,58.538119195046434,50.0
717,57.657701238390096,50.0
718,54.48916408668731,50.0
719,60.48277863777089,50.0
720,57.27554179566564,50.0
721,60.405379256965944,50.0
722,61.45994582043345,50.0
723,56.443498452012385,50.0
724,57.681888544891635,50.0
725,55.62596749226007,50.0
726,55.442143962848306,50.0
727,57.43034055727554,50.0
728,55.24380804953561,50.0
729,57.00464396284831,50.0
730,59.86358359133128,50.0
731,54.6875,50.0
732,58.12693498452012,50.0
733,58.789667182662534,50.0
734,59.4282120743034,50.0
735,56.840170278637764,50.0
736,54.86648606811146,50.0
737,57.20297987616099,50.0
738,57.56578947368421,50.0
739,59.48142414860682,50.0
740,56.87403250773995,50.0
741,58.90576625386998,50.0
742,55.1905959752322,50.0
743,59.59268575851394,50.0
744,60.105456656346746,50.0
745,55.72271671826625,50.0
746,56.680534055727556,50.0
747,57.92376160990712,50.0
748,57.5609520123839,50.0
749,58.05921052631578,50.0
750,63.18208204334366,50.0
751,61.07778637770898,50.0
752,55.85816563467492,50.0
753,55.15673374613002,50.0
754,57.415828173374614,50.0
755,60.850425696594435,50.0
756,55.81462848297213,50.0
757,55.804953560371516,50.0
758,58.77515479876161,50.0
759,59.98452012383901,50.0
760,55.58243034055727,50.0
761,55.6936919504644,50.0
762,57.638351393188856,50.0
763,59.73780959752323,50.0
764,59.0702399380805,50.0
765,61.72116873065017,50.0
766,55.81946594427245,50.0
767,57.88506191950465,50.0
768,63.041795665634666,50.0
769,55.093846749226,50.0
770,56.191950464396285,50.0
771,54.977747678018574,50.0
772,55.95975232198142,50.0
773,56.74342105263158,50.0
774,56.39028637770897,50.0
775,59.060565015479874,50.0
776,59.32662538699691,50.0
777,63.84481424148606,50.0
778,61.280959752321984,50.0
779,54.00541795665634,50.0
780,55.73722910216719,50.0
781,57.44969040247679,50.0
782,58.8186919504644,50.0
783,60.023219814241486,50.0
784,62.70801083591332,50.0
785,61.13583591331268,50.0
786,58.92511609907121,50.0
787,58.09307275541795,50.0
788,56.26451238390093,50.0
789,57.99632352941177,50.0
790,63.641640866873075,50.0
791,55.84365325077399,50.0
792,59.2250386996904,50.0
793,61.4938080495356,50.0
794,59.71362229102167,50.0
795,62.524187306501574,50.0
796,55.47600619195047,50.0
797,57.265866873065015,50.0
798,59.10410216718267,50.0
799,61.84210526315789,50.0
800,58.494582043343655,50.0
801,60.03289473684212,50.0
802,52.42840557275542,50.0
803,55.0406346749226,50.0
804,55.54856811145511,50.0
805,56.98529411764706,50.0
806,60.50696594427245,50.0
807,56.33707430340558,50.0
808,56.994969040247675,50.0
809,57.270704334365334,50.0
810,63.49651702786376,50.0
811,60.79721362229103,50.0
812,58.32043343653251,50.0
813,59.196013931888544,50.0
814,62.33068885448917,50.0
815,58.04953560371517,50.0
816,62.601586687306494,50.0
817,61.000386996904034,50.0
818,58.71226780185757,50.0
819,55.12287151702786,50.0
820,60.45859133126935,50.0
821,57.55611455108359,50.0
822,55.57275541795665,50.0
823,58.09307275541795,50.0
824,58.09307275541796,50.0
825,56.58378482972136,50.0
826,61.01006191950463,50.0
827,57.062693498452006,50.0
828,58.697755417956664,50.0
829,59.747484520123834,50.0
830,58.74613003095975,50.0
831,56.965944272445824,50.0
832,58.107585139318886,50.0
833,54.77457430340558,50.0
834,55.398606811145505,50.0
835,57.45452786377709,50.0
836,60.327979876160995,50.0
837,61.12616099071207,50.0
838,61.19388544891641,50.0
839,58.95897832817337,50.0
840,54.83746130030959,50.0
841,58.93962848297213,50.0
842,61.77921826625387,50.0
843,57.343266253869956,50.0
844,58.2672213622291,50.0
845,60.7875386996904,50.0
846,54.290828173374614,50.0
847,60.70046439628484,50.0
848,54.33920278637771,50.0
849,61.7405185758514,50.0
850,62.11300309597523,50.0
851,65.24767801857584,50.0
852,62.6499613003096,50.0
853,53.250773993808046,50.0
854,60.48277863777089,50.0
855,59.81037151702787,50.0
856,64.16408668730648,50.0
857,53.44427244582043,50.0
858,55.388931888544896,50.0
859,57.851199690402474,50.0
860,62.4419504643963,50.0
861,54.895510835913306,50.0
862,58.87674148606811,50.0
863,64.45917182662541,50.0
864,60.71013931888545,50.0
865,61.72116873065015,50.0
866,54.47948916408669,50.0
867,52.71865325077399,50.0
868,57.18363003095975,50.0
869,57.34810371517028,50.0
870,55.921052631578945,50.0
871,63.3513931888545,50.0
872,58.18982198142414,50.0
873,58.39299535603715,50.0
874,56.08552631578947,50.0
875,61.08262383900929,50.0
876,58.48490712074303,50.0
877,58.43653250773993,50.0
878,57.24167956656347,50.0
879,55.24864551083592,50.0
880,62.345201238390096,50.0
881,63.71904024767804,50.0
882,61.16002321981423,50.0
883,58.968653250774004,50.0
884,57.86571207430341,50.0
885,65.54760061919505,50.0
886,59.79585913312694,50.0
887,63.38525541795667,50.0
888,58.99284055727554,50.0
889,59.59752321981424,50.0
890,63.124032507739926,50.0
891,53.13951238390093,50.0
892,59.30727554179566,50.0
893,60.41505417956657,50.0
894,56.49671052631579,50.0
895,60.70530185758515,50.0
896,57.72058823529411,50.0
897,62.97407120743034,50.0
898,58.01567337461301,50.0
899,60.269930340557266,50.0
900,63.036958204334375,50.0
901,63.22078173374613,50.0
902,52.04140866873065,50.0
903,54.40692724458205,50.0
904,62.66931114551083,50.0
905,56.719233746130044,50.0
906,61.64860681114551,50.0
907,54.121517027863774,50.0
908,57.08688080495356,50.0
909,59.171826625387,50.0
910,60.40537925696593,50.0
911,60.153831269349844,50.0
912,58.3688080495356,50.0
913,57.169117647058826,50.0
914,57.5125773993808,50.0
915,61.958204334365334,50.0
916,61.37287151702785,50.0
917,62.891834365325074,50.0
918,62.161377708978335,50.0
919,60.51664086687306,50.0
920,60.342492260061924,50.0
921,61.89047987616101,50.0
922,58.18014705882353,50.0
923,57.227167182662534,50.0
924,54.76006191950465,50.0
925,62.567724458204324,50.0
926,58.31075851393188,50.0
927,53.39589783281734,50.0
928,60.574690402476776,50.0
929,57.91892414860681,50.0
930,60.88428792569659,50.0
931,57.37712848297213,50.0
932,58.59133126934984,50.0
933,57.19330495356037,50.0
934,62.88699690402477,50.0
935,59.365325077399376,50.0
936,61.00522445820434,50.0
937,56.30804953560372,50.0
938,57.7641253869969,50.0
939,62.291989164086694,50.0
940,54.47465170278638,50.0
941,53.99090557275541,50.0
942,59.60719814241485,50.0
943,57.406153250774,50.0
944,60.37635448916408,50.0
945,62.21942724458205,50.0
946,59.65557275541795,50.0
947,60.661764705882355,50.0
948,57.6625386996904,50.0
949,62.287151702786375,50.0
950,61.43092105263158,50.0
951,59.7765092879257,50.0
952,59.51044891640868,50.0
953,60.48277863777089,50.0
954,58.963815789473685,50.0
955,60.99071207430341,50.0
956,51.58668730650155,50.0
957,59.56849845201238,50.0
958,64.27051083591333,50.0
959,58.33494582043344,50.0
960,54.895510835913306,50.0
961,62.1468653250774,50.0
962,53.55069659442724,50.0
963,59.089589783281724,50.0
964,59.95065789473684,50.0
965,59.30243808049536,50.0
966,59.737809597523224,50.0
967,62.01625386996904,50.0
968,58.70259287925696,50.0
969,57.82217492260063,50.0
970,58.78482972136223,50.0
971,59.72329721362229,50.0
972,58.11726006191951,50.0
973,58.6687306501548,50.0
974,59.56366099071208,50.0
975,57.435178018575854,50.0
976,55.41311919504645,50.0
977,54.87616099071208,50.0
978,55.843653250774004,50.0
979,58.451044891640855,50.0
980,59.33146284829721,50.0
981,59.06056501547988,50.0
982,58.910603715170275,50.0
983,57.314241486068106,50.0
984,62.35487616099073,50.0
985,59.97968266253869,50.0
986,60.85526315789474,50.0
987,57.691563467492244,50.0
988,61.145510835913306,50.0
989,61.914667182662534,50.0
990,55.72755417956657,50.0
991,54.35855263157895,50.0
992,56.42898606811145,50.0
993,60.61339009287925,50.0
994,57.92859907120743,50.0
995,61.9485294117647,50.0
996,53.00890092879257,50.0
997,59.350812693498455,50.0
998,56.027476780185765,50.0
999,60.729489164086694,50.0
1000,61.9436919504644,50.0
1001,62.69833591331268,50.0
1002,64.40112229102166,50.0
1003,60.961687306501545,50.0
1004,61.5421826625387,50.0
1005,58.001160990712066,50.0
1006,58.70259287925696,50.0
1007,55.13254643962848,50.0
1008,61.924342105263165,50.0
1009,57.14976780185759,50.0
1010,59.62654798761611,50.0
1011,59.882933436532504,50.0
1012,54.30050309597523,50.0
1013,60.371517027863774,50.0
1014,60.202205882352935,50.0
1015,53.04760061919505,50.0
1016,61.595394736842096,50.0
1017,58.31075851393189,50.0
1018,60.618227554179555,50.0
1019,58.412345201238395,50.0
1020,57.522252321981426,50.0
1021,60.49245356037152,50.0
1022,55.37441950464397,50.0
1023,57.82217492260061,50.0
1024,57.08204334365325,50.0
1025,58.52360681114551,50.0
1026,62.43711300309598,50.0
1027,57.1594427244582,50.0
1028,60.245743034055735,50.0
1029,64.13022445820434,50.0
1030,58.09791021671827,50.0
1031,60.51664086687306,50.0
1032,61.10681114551085,50.0
1033,64.09636222910216,50.0
1034,60.734326625386984,50.0
1035,57.362616099071204,50.0
1036,59.83939628482972,50.0
1037,59.64589783281734,50.0
1038,58.44620743034056,50.0
1039,57.27554179566564,50.0
1040,56.82565789473683,50.0
1041,60.390866873065015,50.0
1042,56.94175696594428,50.0
1043,55.57759287925697,50.0
1044,59.128289473684205,50.0
1045,60.71013931888545,50.0
1046,57.943111455108365,50.0
1047,59.70878482972137,50.0
1048,60.89396284829722,50.0
1049,61.880804953560364,50.0
1050,60.226393188854495,50.0
1051,61.237422600619205,50.0
1052,57.73993808049536,50.0
1053,56.9078947368421,50.0
1054,55.7952786377709,50.0
1055,63.90770123839008,50.0
1056,57.18846749226006,50.0
1057,64.45917182662541,50.0
1058,57.50773993808049,50.0
1059,64.22697368421052,50.0
1060,58.67356811145512,50.0
1061,56.482198142414866,50.0
1062,55.224458204334375,50.0
1063,57.1546052631579,50.0
1064,61.295472136222905,50.0
1065,59.81520897832818,50.0
1066,63.409442724458195,50.0
1067,56.07585139318886,50.0
1068,58.84287925696595,50.0
1069,59.795859133126925,50.0
1070,56.30321207430341,50.0
1071,56.36126160990711,50.0
1072,61.90982972136224,50.0
1073,58.828366873065015,50.0
1074,60.052244582043336,50.0
1075,58.71710526315788,50.0
1076,59.684597523219814,50.0
1077,58.04469814241487,50.0
1078,59.017027863777095,50.0
1079,61.440595975232206,50.0
1080,62.558049535603715,50.0
1081,59.30727554179567,50.0
1082,62.113003095975245,50.0
1083,59.55398606811144,50.0
1084,60.913312693498455,50.0
1085,65.91524767801857,50.0
1086,57.972136222910216,50.0
1087,58.446207430340564,50.0
1088,62.26296439628484,50.0
1089,57.01431888544891,50.0
1090,58.19465944272446,50.0
1091,58.38332043343652,50.0
1092,61.92917956656347,50.0
1093,58.43653250773994,50.0
1094,58.27205882352941,50.0
1095,57.98181114551083,50.0
1096,57.1062306501548,50.0
1097,59.060565015479874,50.0
1098,56.86919504643963,50.0
1099,57.193304953560364,50.0
1100,53.94253095975233,50.0
1101,62.441950464396285,50.0
1102,57.957623839009294,50.0
1103,60.173181114551085,50.0
1104,57.788312693498455,50.0
1105,60.01354489164086,50.0
1106,56.893382352941174,50.0
1107,54.368227554179555,50.0
1108,57.57062693498453,50.0
1109,62.56772445820434,50.0
1110,56.74342105263158,50.0
1111,57.275541795665646,50.0
1112,59.49593653250775,50.0
1113,58.3204334365325,50.0
1114,56.946594427244584,50.0
1115,55.4469814241486,50.0
1116,59.09442724458205,50.0
1117,53.14918730650155,50.0
1118,60.89880030959751,50.0
1119,55.684017027863774,50.0
1120,56.482198142414866,50.0
1121,61.79856811145511,50.0
1122,67.82604489164088,50.0
1123,58.45104489164086,50.0
1124,60.090944272445824,50.0
1125,55.14222136222911,50.0
1126,58.842879256965944,50.0
1127,56.9611068111455,50.0
1128,57.381965944272444,50.0
1129,59.34113777089783,50.0
1130,58.567143962848306,50.0
1131,67.06172600619195,50.0
1132,59.68459752321981,50.0
1133,57.78347523219814,50.0
1134,59.61203560371517,50.0
1135,56.08552631578947,50.0
1136,59.84423374613003,50.0
1137,58.78966718266253,50.0
1138,59.781346749226,50.0
1139,56.64183436532508,50.0
1140,57.30940402476781,50.0
1141,57.07720588235294,50.0
1142,60.47794117647059,50.0
1143,57.251354489164086,50.0
1144,57.51257739938081,50.0
1145,58.87674148606811,50.0
1146,53.773219814241486,50.0
1147,55.10352167182663,50.0
1148,59.0750773993808,50.0
1149,55.75657894736842,50.0
1150,55.161571207430335,50.0
1151,55.36474458204334,50.0
1152,58.15595975232198,50.0
1153,62.756385448916426,50.0
1154,60.22639318885448,50.0
1155,58.67356811145511,50.0
1156,57.02399380804954,50.0
1157,60.54082817337462,50.0
1158,56.83533281733746,50.0
1159,57.96246130030959,50.0
1160,55.4953560371517,50.0
1161,58.47039473684211,50.0
1162,63.530379256965944,50.0
1163,59.46207430340558,50.0
1164,56.30804953560373,50.0
1165,59.76199690402477,50.0
1166,63.041795665634695,50.0
1167,55.83881578947369,50.0
1168,58.63003095975233,50.0
1169,57.856037151702786,50.0
1170,54.41660216718266,50.0
1171,53.56037151702786,50.0
1172,55.553405572755416,50.0
1173,60.26025541795666,50.0
1174,60.66660216718266,50.0
1175,50.89493034055727,50.0
1176,55.824303405572756,50.0
1177,56.52089783281733,50.0
1178,60.32314241486068,50.0
1179,55.432469040247675,50.0
1180,62.89667182662539,50.0
1181,62.819272445820445,50.0
1182,60.14899380804954,50.0
1183,58.678405572755416,50.0
1184,59.921633126934985,50.0
1185,59.32662538699691,50.0
1186,60.308630030959755,50.0
1187,54.90034829721361,50.0
1188,59.316950464396285,50.0
1189,55.13254643962848,50.0
1190,60.932662538699695,50.0
1191,57.45936532507739,50.0
1192,58.528444272445824,50.0
1193,58.35429566563467,50.0
1194,54.01993034055728,50.0
1195,59.916795665634666,50.0
1196,57.92859907120743,50.0
1197,60.13448142414861,50.0
1198,62.82894736842104,50.0
1199,58.43653250773994,50.0
1200,59.162151702786375,50.0
1201,61.958204334365334,50.0
1202,60.60371517027864,50.0
1203,57.74961300309597,50.0
1204,55.86300309597522,50.0
1205,54.813273993808046,50.0
1206,56.88854489164086,50.0
1207,58.5671439628483,50.0
1208,61.808243034055735,50.0
1209,60.43924148606811,50.0
1210,57.202979876161,50.0
1211,55.18092105263158,50.0
1212,60.976199690402474,50.0
1213,58.75096749226006,50.0
1214,61.198722910216716,50.0
1215,59.42821207430341,50.0
1216,62.83378482972136,50.0
1217,60.09578173374612,50.0
1218,64.18827399380805,50.0
1219,59.33630030959752,50.0
1220,57.72058823529412,50.0
1221,60.424729102167184,50.0
1222,57.91892414860681,50.0
1223,52.660603715170275,50.0
1224,59.71362229102166,50.0
1225,57.415828173374614,50.0
1226,63.06114551083592,50.0
1227,62.093653250774,50.0
1228,63.104682662538714,50.0
1229,58.601006191950475,50.0
1230,54.63428792569659,50.0
1231,63.003095975232206,50.0
1232,63.02728328173374,50.0
1233,63.365905572755416,50.0
1234,58.01567337461301,50.0
1235,56.6031346749226,50.0
1236,58.765479876161,50.0
1237,60.47794117647057,50.0
1238,64.48819659442725,50.0
1239,57.27554179566563,50.0
1240,58.8719040247678,50.0
1241,59.839396284829725,50.0
1242,53.64744582043345,50.0
1243,58.692917956656345,50.0
1244,59.55398606811145,50.0
1245,59.12345201238389,50.0
1246,62.97407120743034,50.0
1247,59.26857585139319,50.0
1248,63.49167956656347,50.0
1249,61.60023219814243,50.0
1250,60.61339009287925,50.0
1251,58.189821981424146,50.0
1252,59.19117647058823,50.0
1253,65.65402476780184,50.0
1254,60.352167182662534,50.0
1255,59.70394736842106,50.0
1256,58.243034055727556,50.0
1257,57.61416408668731,50.0
1258,60.8891253869969,50.0
1259,61.05359907120743,50.0
1260,61.46478328173374,50.0
1261,59.196013931888544,50.0
1262,61.84210526315789,50.0
1263,57.32391640866873,50.0
1264,61.46962074303404,50.0
1265,58.12693498452012,50.0
1266,58.76547987616099,50.0
1267,60.298955108359145,50.0
1268,58.0640479876161,50.0
1269,61.52767027863777,50.0
1270,58.42202012383901,50.0
1271,62.93537151702785,50.0
1272,57.459365325077385,50.0
1273,63.03695820433436,50.0
1274,60.298955108359145,50.0
1275,55.72755417956656,50.0
1276,55.775928792569665,50.0
1277,55.87751547987615,50.0
1278,59.631385448916404,50.0
1279,59.278250773993804,50.0
1280,62.200077399380795,50.0
1281,56.83533281733746,50.0
1282,59.63138544891641,50.0
1283,61.91950464396285,50.0
1284,56.30804953560371,50.0
1285,57.43517801857586,50.0
1286,60.11029411764706,50.0
1287,62.74187306501546,50.0
1288,57.406153250774,50.0
1289,60.434404024767794,50.0
1290,55.524380804953566,50.0
1291,59.52012383900928,50.0
1292,63.099845201238395,50.0
1293,60.86493808049536,50.0
1294,58.24303405572756,50.0
1295,63.98993808049537,50.0
1296,59.79585913312694,50.0
1297,60.008707430340564,50.0
1298,56.588622291021665,50.0
1299,60.995549535603715,50.0
1300,59.08958978328173,50.0
1301,57.73993808049536,50.0
1302,61.484133126934985,50.0
1303,64.47852167182664,50.0
1304,53.43459752321981,50.0
1305,59.09442724458204,50.0
1306,60.07159442724459,50.0
1307,58.68324303405573,50.0
1308,54.784249226006196,50.0
1309,55.27283281733745,50.0
1310,60.15866873065015,50.0
1311,51.964009287925705,50.0
1312,56.370936532507734,50.0
1313,59.86358359133126,50.0
1314,57.0094814241486,50.0
1315,60.782701238390096,50.0
1316,57.48839009287925,50.0
1317,60.56501547987615,50.0
1318,57.35777863777089,50.0
1319,55.098684210526315,50.0
1320,57.657701238390096,50.0
1321,62.44678792569659,50.0
1322,61.06327399380805,50.0
1323,57.67221362229102,50.0
1324,60.405379256965944,50.0
1325,56.7530959752322,50.0
1326,55.369582043343655,50.0
1327,61.22774767801858,50.0
1328,58.59616873065016,50.0
1329,60.94717492260061,50.0
1330,60.32314241486068,50.0
1331,57.125580495356026,50.0
1332,58.189821981424146,50.0
1333,58.40267027863777,50.0
1334,59.07023993808049,50.0
1335,57.710913312693485,50.0
1336,56.97078173374613,50.0
1337,57.73510061919505,50.0
1338,54.68266253869969,50.0
1339,64.13989938080495,50.0
1340,62.32585139318886,50.0
1341,56.88370743034055,50.0
1342,61.83243034055728,50.0
1343,57.44969040247678,50.0
1344,54.015092879256976,50.0
1345,59.56366099071207,50.0
1346,59.60719814241486,50.0
1347,57.435178018575854,50.0
1348,56.88854489164087,50.0
1349,60.632739938080505,50.0
1350,54.83746130030959,50.0
1351,58.18014705882352,50.0
1352,57.580301857585134,50.0
1353,54.261803405572756,50.0
1354,54.81811145510835,50.0
1355,56.61280959752322,50.0
1356,60.31830495356038,50.0
1357,60.82623839009288,50.0
1358,56.796633126934985,50.0
1359,56.8063080495356,50.0
1360,63.051470588235304,50.0
1361,59.46207430340557,50.0
1362,54.59558823529411,50.0
1363,59.07023993808048,50.0
1364,59.28308823529412,50.0
1365,58.097910216718276,50.0
1366,59.80553405572755,50.0
1367,56.932082043343655,50.0
1368,60.298955108359145,50.0
1369,60.913312693498455,50.0
1370,58.54779411764705,50.0
1371,58.5719814241486,50.0
1372,59.20085139318886,50.0
1373,55.78076625386997,50.0
1374,58.8235294117647,50.0
1375,58.276896284829725,50.0
1376,60.511803405572756,50.0
1377,60.64725232198142,50.0
1378,62.05979102167183,50.0
1379,56.559597523219814,50.0
1380,59.495936532507734,50.0
1381,61.31482198142415,50.0
1382,55.06965944272446,50.0
1383,58.19465944272446,50.0
1384,58.388157894736835,50.0
1385,52.22039473684211,50.0
1386,59.13796439628483,50.0
1387,61.01973684210526,50.0
1388,61.2906346749226,50.0
1389,56.545085139318886,50.0
1390,58.528444272445824,50.0
1391,57.565789473684205,50.0
1392,59.88777089783282,50.0
1393,55.248645510835914,50.0
1394,56.23548761609908,50.0
1395,60.12480650154799,50.0
1396,57.28521671826625,50.0
1397,62.925696594427244,50.0
1398,59.41369969040248,50.0
1399,61.19388544891641,50.0
1400,61.43575851393189,50.0
1401,60.221555727554176,50.0
1402,57.81249999999999,50.0
1403,58.301083591331285,50.0
1404,58.247871517027875,50.0
1405,60.81656346749225,50.0
1406,61.72116873065015,50.0
1407,54.60526315789474,50.0
1408,56.60313467492261,50.0
1409,60.11513157894737,50.0
1410,61.28579721362229,50.0
1411,56.24516253869968,50.0
1412,56.25967492260062,50.0
1413,59.32662538699691,50.0
1414,58.77031733746131,50.0
1415,56.932082043343655,50.0
1416,58.74129256965944,50.0
1417,58.88157894736842,50.0
1418,61.10197368421053,50.0
1419,55.084171826625386,50.0
1420,57.71575077399381,50.0
1421,57.22716718266254,50.0
1422,62.470975232198136,50.0
1423,60.71013931888545,50.0
1424,58.1656346749226,50.0
1425,61.77921826625387,50.0
1426,58.015673374613,50.0
1427,56.97561919504645,50.0
1428,56.187113003095966,50.0
1429,54.58107585139319,50.0
1430,60.782701238390096,50.0
1431,61.03908668730651,50.0
1432,60.594040247678016,50.0
1433,60.65208978328174,50.0
1434,63.452979876160995,50.0
1435,56.138738390092875,50.0
1436,55.78076625386998,50.0
1437,59.824883900928796,50.0
1438,59.936145510835914,50.0
1439,59.37983746130031,50.0
1440,57.27554179566563,50.0
1441,59.38951238390093,50.0
1442,58.85255417956656,50.0
1443,60.92298761609907,50.0
1444,56.119388544891635,50.0
1445,57.26102941176471,50.0
1446,57.79315015479876,50.0
1447,60.613390092879264,50.0
1448,56.453173374613,50.0
1449,59.24922600619195,50.0
1450,60.49245356037152,50.0
1451,57.37712848297214,50.0
1452,57.76412538699691,50.0
1453,62.567724458204324,50.0
1454,62.94504643962848,50.0
1455,55.601780185758514,50.0
1456,60.028057275541784,50.0
1457,59.921633126934985,50.0
1458,57.84152476780187,50.0
1459,60.308630030959755,50.0
1460,61.12616099071207,50.0
1461,55.684017027863774,50.0
1462,54.315015479876166,50.0
1463,56.45801083591331,50.0
1464,61.16486068111455,50.0
1465,55.63564241486068,50.0
1466,58.4655572755418,50.0
1467,59.18633900928793,50.0
1468,53.95220588235294,50.0
1469,54.88583591331269,50.0
1470,57.83184984520123,50.0
1471,56.35642414860681,50.0
1472,61.571207430340564,50.0
1473,55.63080495356037,50.0
1474,59.805534055727556,50.0
1475,58.3688080495356,50.0
1476,61.39705882352941,50.0
1477,56.283862229102176,50.0
1478,58.542956656346746,50.0
1479,59.37016253869968,50.0
1480,58.76064241486068,50.0
1481,56.29837461300309,50.0
1482,60.608552631578945,50.0
1483,53.58455882352941,50.0
1484,60.545665634674926,50.0
1485,58.494582043343655,50.0
1486,61.851780185758514,50.0
1487,58.1704721362229,50.0
1488,60.81172600619195,50.0
1489,54.963235294117645,50.0
1490,59.46207430340557,50.0
1491,56.811145510835914,50.0
1492,50.464396284829725,50.0
1493,57.62383900928793,50.0
1494,59.34113777089783,50.0
1495,62.3500386996904,50.0
1496,60.82623839009288,50.0
1497,54.52302631578947,50.0
1498,52.69446594427244,50.0
1499,57.435178018575854,50.0
1500,59.49109907120743,50.0
1501,55.703366873065015,50.0
1502,55.91621517027864,50.0
1503,60.274767801857585,50.0
1504,56.071013931888544,50.0
1505,55.25348297213623,50.0
1506,60.2263931888545,50.0
1507,57.473877708978335,50.0
1508,60.74400154798761,50.0
1509,58.1124226006192,50.0
1510,61.121323529411775,50.0
1511,56.46284829721362,50.0
1512,56.76277089783281,50.0
1513,61.23742260061919,50.0
1514,57.754450464396285,50.0
1515,53.129837461300305,50.0
1516,60.91815015479876,50.0
1517,59.205688854489175,50.0
1518,55.59210526315789,50.0
1519,62.91602167182663,50.0
1520,62.441950464396285,50.0
1521,61.51315789473685,50.0
1522,56.815982972136226,50.0
1523,56.67569659442724,50.0
1524,58.94930340557275,50.0
1525,59.732972136222905,50.0
1526,58.325270897832816,50.0
1527,63.08533281733745,50.0
1528,53.56037151702786,50.0
1529,62.36938854489164,50.0
1530,61.82759287925696,50.0
1531,58.84287925696595,50.0
1532,57.033668730650156,50.0
1533,57.33842879256966,50.0
1534,55.887190402476776,50.0
1535,58.31075851393189,50.0
1536,59.9313080495356,50.0
1537,63.346555727554176,50.0
1538,58.75580495356036,50.0
1539,55.31636996904024,50.0
1540,62.25328947368422,50.0
1541,54.00058049535603,50.0
1542,56.84017027863778,50.0
1543,52.82991486068111,50.0
1544,55.86784055727554,50.0
1545,55.67434210526316,50.0
1546,57.986648606811144,50.0
1547,59.921633126934985,50.0
1548,57.909249226006196,50.0
1549,61.83726780185757,50.0
1550,53.56520897832817,50.0
1551,58.64938080495356,50.0
1552,55.14705882352942,50.0
1553,63.380417956656345,50.0
1554,61.99690402476781,50.0
1555,60.00386996904024,50.0
1556,53.25561145510837,50.0
1557,60.74400154798762,50.0
1558,58.18982198142415,50.0
1559,55.68885448916408,50.0
1560,61.23742260061919,50.0
1561,61.48413312693498,50.0
1562,59.05572755417956,50.0
1563,56.10003869969041,50.0
1564,62.8095975232198,50.0
1565,54.41660216718267,50.0
1566,59.06056501547988,50.0
1567,60.35700464396285,50.0
1568,63.08533281733747,50.0
1569,60.579527863777095,50.0
1570,57.014318885448915,50.0
1571,57.5125773993808,50.0
1572,56.73858359133126,50.0
1573,58.89125386996904,50.0
1574,57.51257739938081,50.0
1575,58.68324303405572,50.0
1576,55.10835913312693,50.0
1577,62.77089783281734,50.0
1578,57.71575077399381,50.0
1579,58.37364551083592,50.0
1580,62.785410216718276,50.0
1581,59.77650928792569,50.0
1582,57.98664860681114,50.0
1583,61.97755417956657,50.0
1584,59.87325851393189,50.0
1585,57.84152476780186,50.0
1586,59.09926470588236,50.0
1587,55.06965944272445,50.0
1588,59.76199690402476,50.0
1589,61.193885448916426,50.0
1590,56.225812693498455,50.0
1591,53.976393188854495,50.0
1592,62.267801857585134,50.0
1593,56.627321981424146,50.0
1594,51.11745356037153,50.0
1595,56.43866099071207,50.0
1596,60.82623839009288,50.0
1597,62.57739938080495,50.0
1598,57.52225232198142,50.0
1599,56.462848297213625,50.0
1600,58.402670278637764,50.0
1601,52.278444272445824,50.0
1602,54.460139318885446,50.0
1603,58.51876934984519,50.0
1604,60.39570433436532,50.0
1605,63.64164086687306,50.0
1606,54.81327399380805,50.0
1607,64.03831269349844,50.0
1608,56.254837461300305,50.0
1609,61.629256965944265,50.0
1610,58.49941950464397,50.0
1611,55.24380804953561,50.0
1612,64.23664860681114,50.0
1613,61.25193498452012,50.0
1614,61.22291021671826,50.0
1615,54.80359907120743,50.0
1616,51.51896284829721,50.0
1617,53.328173374613,50.0
1618,62.538699690402474,50.0
1619,59.46691176470588,50.0
1620,63.01760835913313,50.0
1621,61.72116873065016,50.0
1622,60.42472910216719,50.0
1623,57.822174922600624,50.0
1624,60.879450464396285,50.0
1625,57.58997678018576,50.0
1626,59.43788699690403,50.0
1627,60.40537925696596,50.0
1628,61.576044891640855,50.0
1629,55.214783281733745,50.0
1630,59.616873065015476,50.0
1631,60.666602167182674,50.0
1632,56.477360681114554,50.0
1633,59.099264705882355,50.0
1634,59.583010835913306,50.0
1635,63.7529024767802,50.0
1636,55.030959752321984,50.0
1637,58.00599845201239,50.0
1638,59.04121517027863,50.0
1639,52.77186532507739,50.0
1640,60.85042569659442,50.0
1641,55.06965944272446,50.0
1642,62.41292569659442,50.0
1643,60.79721362229102,50.0
1644,59.05572755417957,50.0
1645,63.67550309597523,50.0
1646,56.63699690402477,50.0
1647,57.73026315789473,50.0
1648,59.196013931888544,50.0
1649,59.55882352941177,50.0
1650,54.43595201238389,50.0
1651,55.0406346749226,50.0
1652,61.17453560371517,50.0
1653,56.91756965944273,50.0
1654,55.18575851393188,50.0
1655,59.22987616099072,50.0
1656,62.67414860681114,50.0
1657,57.285216718266255,50.0
1658,52.670278637770906,50.0
1659,59.77650928792569,50.0
1660,61.01006191950464,50.0
1661,60.008707430340564,50.0
1662,57.04818111455108,50.0
1663,55.38893188854488,50.0
1664,60.61339009287925,50.0
1665,57.08688080495356,50.0
1666,55.20994582043343,50.0
1667,58.69775541795666,50.0
1668,56.06617647058823,50.0
1669,59.931308049535595,50.0
1670,58.944465944272444,50.0
1671,57.46420278637771,50.0
1672,61.51799535603715,50.0
1673,61.484133126934985,50.0
1674,62.62093653250775,50.0
1675,62.96923374613002,50.0
1676,59.21536377708978,50.0
1677,59.486261609907125,50.0
1678,54.25212848297213,50.0
1679,62.470975232198136,50.0
1680,56.656346749225996,50.0
1681,60.787538699690394,50.0
1682,62.291989164086694,50.0
1683,60.85526315789474,50.0
1684,60.594040247678016,50.0
1685,54.51335139318886,50.0
1686,58.05921052631579,50.0
1687,55.15673374613004,50.0
1688,60.04256965944272,50.0
1689,57.88989938080495,50.0
1690,58.57681888544892,50.0
1691,60.16834365325077,50.0
1692,61.82275541795666,50.0
1693,61.45994582043343,50.0
1694,56.317724458204324,50.0
1695,61.98239164086687,50.0
1696,60.395704334365334,50.0
1697,58.891253869969034,50.0
1698,61.47445820433436,50.0
1699,54.01025541795667,50.0
1700,57.58997678018575,50.0
1701,62.44678792569658,50.0
1702,57.39164086687306,50.0
1703,61.90499226006191,50.0
1704,58.13177244582044,50.0
1705,60.7391640866873,50.0
1706,58.98800309597523,50.0
1707,62.98374613003096,50.0
1708,62.12751547987615,50.0
1709,56.48703560371518,50.0
1710,62.30650154798761,50.0
1711,57.61900154798761,50.0
1712,56.46768575851394,50.0
1713,61.01489938080495,50.0
1714,60.85526315789474,50.0
1715,59.60719814241487,50.0
1716,63.24013157894736,50.0
1717,60.68111455108359,50.0
1718,56.75793343653251,50.0
1719,61.005224458204324,50.0
1720,59.87325851393188,50.0
1721,57.45936532507739,50.0
1722,56.177438080495364,50.0
1723,63.743227554179555,50.0
1724,53.40073529411764,50.0
1725,59.69427244582044,50.0
1726,57.94794891640866,50.0
1727,60.594040247678016,50.0
1728,57.06269349845201,50.0
1729,55.88235294117648,50.0
1730,54.60042569659442,50.0
1731,62.41776315789473,50.0
1732,52.24941950464396,50.0
1733,57.23200464396285,50.0
1734,61.27128482972136,50.0
1735,61.324496904024784,50.0
1736,64.85100619195043,50.0
1737,59.51044891640866,50.0
1738,60.265092879256976,50.0
1739,60.69562693498451,50.0
1740,63.0563080495356,50.0
1741,61.851780185758514,50.0
1742,56.927244582043336,50.0
1743,57.0578560371517,50.0
1744,55.50986842105262,50.0
1745,61.12616099071206,50.0
1746,59.1234520123839,50.0
1747,57.149767801857585,50.0
1748,63.346555727554176,50.0
1749,56.25,50.0
1750,62.36938854489164,50.0
1751,61.52767027863776,50.0
1752,59.24922600619195,50.0
1753,56.25967492260062,50.0
1754,53.9763931888545,50.0
1755,57.97213622291021,50.0
1756,66.13777089783281,50.0
1757,60.47310371517028,50.0
1758,60.5843653250774,50.0
1759,57.08204334365325,50.0
1760,57.37712848297213,50.0
1761,55.872678018575854,50.0
1762,58.779992260061924,50.0
1763,54.63428792569659,50.0
1764,56.12422600619195,50.0
1765,53.32817337461301,50.0
1766,55.90170278637772,50.0
1767,58.818691950464384,50.0
1768,54.93421052631579,50.0
1769,62.12267801857586,50.0
1770,53.942530959752325,50.0
1771,60.04740712074303,50.0
1772,57.62383900928793,50.0
1773,55.935565015479874,50.0
1774,55.113196594427244,50.0
1775,58.53811919504644,50.0
1776,54.5859133126935,50.0
1777,60.54082817337461,50.0
1778,60.92782507739939,50.0
1779,54.55205108359133,50.0
1780,60.53115325077398,50.0
1781,58.533281733746136,50.0
1782,58.296246130030966,50.0
1783,56.849845201238395,50.0
1784,62.204914860681114,50.0
1785,56.4483359133127,50.0
1786,56.95626934984521,50.0
1787,57.84152476780186,50.0
1788,57.22232972136223,50.0
1789,59.036377708978335,50.0
1790,56.31288699690403,50.0
1791,58.68808049535603,50.0
1792,56.69504643962848,50.0
1793,52.733165634674926,50.0
1794,58.91060371517028,50.0
1795,60.013544891640855,50.0
1796,52.82023993808049,50.0
1797,55.67434210526316,50.0
1798,54.99709752321981,50.0
1799,61.83243034055728,50.0
1800,57.27070433436533,50.0
1801,59.86358359133127,50.0
1802,54.59558823529411,50.0
1803,54.015092879256976,50.0
1804,56.39512383900929,50.0
1805,58.576818885448915,50.0
1806,60.294117647058826,50.0
1807,57.05301857585139,50.0
1808,57.82701238390092,50.0
1809,59.99903250773994,50.0
1810,59.612035603715164,50.0
1811,61.08262383900927,50.0
1812,59.29276315789475,50.0
1813,56.03715170278638,50.0
1814,58.48006965944273,50.0
1815,60.92298761609908,50.0
1816,58.97349071207431,50.0
1817,62.538699690402474,50.0
1818,57.73993808049535,50.0
1819,57.18363003095976,50.0
1820,61.07778637770898,50.0
1821,61.01489938080495,50.0
1822,58.17047213622291,50.0
1823,59.72329721362229,50.0
1824,53.86513157894737,50.0
1825,61.25193498452013,50.0
1826,57.52708978328173,50.0
1827,60.07159442724458,50.0
1828,61.900154798761605,50.0
1829,61.30030959752321,50.0
1830,57.77380030959753,50.0
1831,58.19949690402477,50.0
1832,61.987229102167184,50.0
1833,58.596168730650156,50.0
1834,59.65073529411764,50.0
1835,62.24361455108359,50.0
1836,53.59907120743034,50.0
1837,57.033668730650156,50.0
1838,58.47523219814242,50.0
1839,60.47310371517028,50.0
1840,59.51528637770898,50.0
1841,59.29276315789474,50.0
1842,62.23393962848298,50.0
1843,63.907701238390096,50.0
1844,61.05359907120743,50.0
1845,59.471749226006196,50.0
1846,52.8734520123839,50.0
1847,63.27883126934985,50.0
1848,61.44059597523219,50.0
1849,56.85468266253869,50.0
1850,52.49613003095975,50.0
1851,58.610681114551085,50.0
1852,62.32101393188856,50.0
1853,59.78134674922599,50.0
1854,56.30321207430341,50.0
1855,61.72600619195047,50.0
1856,60.632739938080505,50.0
1857,61.13099845201239,50.0
1858,59.43304953560372,50.0
1859,59.553986068111456,50.0
1860,54.70684984520124,50.0
1861,59.583010835913306,50.0
1862,58.47523219814243,50.0
1863,60.221555727554176,50.0
1864,61.26160990712075,50.0
1865,57.0578560371517,50.0
1866,61.33417182662539,50.0
1867,60.88428792569659,50.0
1868,58.27689628482972,50.0
1869,59.43788699690403,50.0
1870,59.703947368421055,50.0
1871,58.59616873065016,50.0
1872,63.767414860681114,50.0
1873,52.82507739938081,50.0
1874,59.10410216718266,50.0
1875,57.5125773993808,50.0
1876,55.70820433436533,50.0
1877,57.58997678018575,50.0
1878,63.90286377708978,50.0
1879,58.88641640866873,50.0
1880,62.8531346749226,50.0
1881,61.35835913312695,50.0
1882,58.431695046439636,50.0
1883,60.5359907120743,50.0
1884,57.502902476780186,50.0
1885,60.6424148606811,50.0
1886,62.75154798761609,50.0
1887,61.01006191950464,50.0
1888,55.04063467492261,50.0
1889,55.8484907120743,50.0
1890,60.932662538699695,50.0
1891,59.099264705882355,50.0
1892,58.3688080495356,50.0
1893,59.16698916408669,50.0
1894,62.27747678018576,50.0
1895,59.350812693498455,50.0
1896,60.221555727554176,50.0
1897,63.54489164086687,50.0
1898,56.33707430340557,50.0
1899,60.45375386996904,50.0
1900,60.26993034055728,50.0
1901,60.20704334365325,50.0
1902,58.489744582043336,50.0
1903,56.830495356037154,50.0
1904,54.929373065015476,50.0
1905,58.528444272445824,50.0
1906,58.63970588235294,50.0
1907,57.67221362229102,50.0
1908,56.24032507739939,50.0
1909,56.1967879256966,50.0
1910,60.090944272445824,50.0
1911,60.79237616099071,50.0
1912,58.02051083591331,50.0
1913,54.97774767801858,50.0
1914,55.58243034055728,50.0
1915,54.68749999999999,50.0
1916,58.088235294117645,50.0
1917,60.627902476780186,50.0
1918,65.5814628482972,50.0
1919,54.42143962848298,50.0
1920,56.01780185758514,50.0
1921,54.760061919504636,50.0
1922,53.24593653250775,50.0
1923,54.464976780185765,50.0
1924,61.7405185758514,50.0
1925,56.79663312693498,50.0
1926,58.48006965944272,50.0
1927,60.70530185758515,50.0
1928,57.415828173374614,50.0
1929,61.01973684210527,50.0
1930,54.223103715170275,50.0
1931,60.632739938080505,50.0
1932,60.961687306501545,50.0
1933,56.109713622291025,50.0
1934,55.911377708978335,50.0
1935,54.832623839009294,50.0
1936,61.266447368421055,50.0
1937,57.164280185758514,50.0
1938,62.737035603715185,50.0
1939,59.89744582043343,50.0
1940,58.40267027863777,50.0
1941,56.17743808049536,50.0
1942,59.563660990712066,50.0
1943,62.12267801857585,50.0
1944,58.33494582043344,50.0
1945,57.53192724458204,50.0
1946,59.28792569659442,50.0
1947,54.87132352941177,50.0
1948,56.62248452012384,50.0
1949,59.81520897832817,50.0
1950,56.67085913312693,50.0
1951,61.885642414860676,50.0
1952,65.79914860681114,50.0
1953,56.9562693498452,50.0
1954,59.49593653250775,50.0
1955,60.023219814241486,50.0
1956,54.3827399380805,50.0
1957,59.578173374613,50.0
1958,54.40692724458204,50.0
1959,59.09442724458204,50.0
1960,59.01702786377708,50.0
1961,60.40054179566564,50.0
1962,60.16834365325077,50.0
1963,60.31346749226006,50.0
1964,59.82004643962848,50.0
1965,56.58378482972136,50.0
1966,60.42956656346749,50.0
1967,58.28173374613003,50.0
1968,58.847716718266255,50.0
1969,58.64938080495355,50.0
1970,53.37171052631579,50.0
1971,55.442143962848306,50.0
1972,58.78966718266253,50.0
1973,61.484133126934985,50.0
1974,54.64880030959752,50.0
1975,60.07643188854489,50.0
1976,62.34036377708978,50.0
1977,61.580882352941174,50.0
1978,62.746710526315795,50.0
1979,60.9858746130031,50.0
1980,57.367453560371516,50.0
1981,61.82275541795666,50.0
1982,61.67279411764706,50.0
1983,56.279024767801864,50.0
1984,59.26857585139319,50.0
1985,59.23955108359134,50.0
1986,60.82623839009288,50.0
1987,61.029411764705884,50.0
1988,62.98858359133128,50.0
1989,54.30534055727554,50.0
1990,57.3094040247678,50.0
1991,58.005998452012385,50.0
1992,57.08688080495357,50.0
1993,59.18633900928791,50.0
1994,60.79237616099071,50.0
1995,60.294117647058826,50.0
1996,61.15034829721361,50.0
1997,61.90015479876162,50.0
1998,59.54914860681115,50.0
1999,56.43382352941177,50.0
2000,57.0046439628483,50.0
2001,61.503482972136226,50.0
2002,62.11300309597523,50.0
2003,60.94717492260061,50.0
2004,60.47794117647057,50.0
2005,54.1311919504644,50.0
2006,59.01702786377709,50.0
2007,57.20297987616099,50.0
2008,55.650154798761605,50.0
2009,56.12906346749225,50.0
2010,58.083397832817326,50.0
2011,65.29605263157895,50.0
2012,55.34539473684211,50.0
2013,56.00812693498452,50.0
2014,56.46768575851393,50.0
2015,57.75928792569658,50.0
2016,58.542956656346746,50.0
2017,63.095007739938076,50.0
2018,63.23045665634674,50.0
2019,55.59210526315789,50.0
2020,58.11726006191951,50.0
2021,53.521671826625386,50.0
2022,59.59268575851394,50.0
2023,63.883513931888544,50.0
2024,57.0578560371517,50.0
2025,57.517414860681114,50.0
2026,56.57410990712074,50.0
2027,60.56985294117647,50.0
2028,58.04469814241486,50.0
2029,58.88641640866873,50.0
2030,54.982585139318886,50.0
2031,56.1000386996904,50.0
2032,58.95414086687306,50.0
2033,57.27554179566564,50.0
2034,55.97910216718267,50.0
2035,58.813854489164086,50.0
2036,54.77457430340557,50.0
2037,54.61977554179567,50.0
2038,57.444852941176464,50.0
2039,59.41853715170279,50.0
2040,55.23413312693499,50.0
2041,63.86416408668732,50.0
2042,59.27825077399382,50.0
2043,58.43653250773995,50.0
2044,61.1358359133127,50.0
2045,58.286571207430335,50.0
2046,59.936145510835914,50.0
2047,59.776509287925705,50.0
2048,58.05921052631578,50.0
2049,57.981811145510825,50.0
2050,57.788312693498455,50.0
2051,57.42550309597523,50.0
2052,58.721942724458195,50.0
2053,59.87809597523219,50.0
2054,57.95762383900929,50.0
2055,57.014318885448915,50.0
2056,60.608552631578945,50.0
2057,57.95278637770899,50.0
2058,56.11938854489165,50.0
2059,62.75638544891641,50.0
2060,58.34945820433437,50.0
2061,64.05766253869969,50.0
2062,62.949883900928796,50.0
2063,57.49806501547988,50.0
2064,61.96304179566564,50.0
2065,54.261803405572756,50.0
2066,56.92724458204334,50.0
2067,56.01296439628483,50.0
2068,59.82972136222911,50.0
2069,61.663119195046434,50.0
2070,54.600425696594435,50.0
2071,57.778637770897824,50.0
2072,60.01354489164087,50.0
2073,61.25677244582043,50.0
2074,59.9796826625387,50.0
2075,58.12209752321981,50.0
2076,54.377902476780186,50.0
2077,59.09926470588236,50.0
2078,53.94253095975233,50.0
2079,65.71691176470588,50.0
2080,61.83243034055728,50.0
2081,59.65557275541796,50.0
2082,60.40054179566564,50.0
2083,55.2389705882353,50.0
2084,62.67414860681114,50.0
2085,60.298955108359145,50.0
2086,55.72755417956657,50.0
2087,59.902283281733745,50.0
2088,61.25193498452011,50.0
2089,59.58784829721362,50.0
2090,57.880224458204324,50.0
2091,57.64802631578947,50.0
2092,57.425503095975245,50.0
2093,56.44833591331268,50.0
2094,55.887190402476776,50.0
2095,66.51509287925697,50.0
2096,58.610681114551085,50.0
2097,59.11377708978328,50.0
2098,58.04469814241486,50.0
2099,53.88931888544892,50.0
2100,57.34326625386997,50.0
2101,59.824883900928796,50.0
2102,56.36609907120743,50.0
2103,62.233939628482965,50.0
2104,57.30456656346749,50.0
2105,59.11861455108359,50.0
2106,49.158281733746136,50.0
2107,59.64589783281734,50.0
2108,55.97910216718266,50.0
2109,65.45568885448915,50.0
2110,59.113777089783284,50.0
2111,54.27147832817337,50.0
2112,58.02534829721361,50.0
2113,55.084171826625386,50.0
2114,58.910603715170275,50.0
2115,59.96033281733746,50.0
2116,59.6797600619195,50.0
2117,57.885061919504636,50.0
2118,58.828366873065015,50.0
2119,57.386803405572756,50.0
2120,54.02476780185759,50.0
2121,58.79934210526315,50.0
2122,59.35565015479876,50.0
2123,61.81308049535604,50.0
2124,58.09307275541796,50.0
2125,59.12828947368422,50.0
2126,60.84075077399381,50.0
2127,58.015673374613,50.0
2128,60.1780185758514,50.0
2129,61.66311919504645,50.0
2130,59.54431114551084,50.0
2131,58.20433436532508,50.0
2132,62.558049535603715,50.0
2133,59.15247678018575,50.0
2134,59.73780959752322,50.0
2135,61.84210526315789,50.0
2136,61.537345201238395,50.0
2137,60.09094427244582,50.0
2138,52.90247678018576,50.0
2139,54.044117647058826,50.0
2140,51.99303405572755,50.0
2141,58.78482972136222,50.0
2142,60.20220588235295,50.0
2143,61.9485294117647,50.0
2144,58.19465944272446,50.0
2145,60.511803405572756,50.0
2146,53.27012383900929,50.0
2147,59.13312693498452,50.0
2148,58.53328173374613,50.0
2149,56.66602167182663,50.0
2150,55.06965944272446,50.0
2151,59.839396284829725,50.0
2152,56.458010835913306,50.0
2153,53.7296826625387,50.0
2154,57.401315789473685,50.0
2155,60.14415634674922,50.0
2156,54.70684984520124,50.0
2157,60.46826625386996,50.0
2158,59.78134674922601,50.0
2159,58.60100619195047,50.0
2160,55.137383900928796,50.0
2161,58.233359133126946,50.0
2162,54.76973684210526,50.0
2163,58.69775541795665,50.0
2164,59.64106037151703,50.0
2165,58.2672213622291,50.0
2166,59.181501547987615,50.0
2167,66.75212848297213,50.0
2168,56.67085913312693,50.0
2169,64.2753482972136,50.0
2170,59.694272445820445,50.0
2171,61.23742260061919,50.0
2172,58.402670278637764,50.0
2173,57.83184984520125,50.0
2174,56.6515092879257,50.0
2175,62.01141640866872,50.0
2176,62.98858359133126,50.0
2177,63.162732198142415,50.0
2178,60.65692724458205,50.0
2179,59.960332817337466,50.0
2180,57.22232972136222,50.0
2181,58.03986068111456,50.0
2182,60.598877708978335,50.0
2183,54.89551083591331,50.0
2184,60.92782507739939,50.0
2185,62.54353715170278,50.0
2186,56.42414860681115,50.0
2187,59.186339009287934,50.0
2188,55.66950464396284,50.0
2189,61.40189628482972,50.0
2190,63.738390092879264,50.0
2191,58.025348297213625,50.0
2192,60.44891640866874,50.0
2193,60.04740712074304,50.0
2194,58.99284055727555,50.0
2195,58.31075851393189,50.0
2196,62.52418730650156,50.0
2197,58.31075851393189,50.0
2198,59.97968266253871,50.0
2199,56.569272445820424,50.0
2200,61.07294891640868,50.0
2201,57.06269349845201,50.0
2202,56.86435758513932,50.0
2203,57.8608746130031,50.0
2204,57.149767801857585,50.0
2205,59.75715944272446,50.0
2206,59.60236068111455,50.0
2207,55.87267801857585,50.0
2208,53.400735294117645,50.0
2209,62.31133900928793,50.0
2210,56.32256191950464,50.0
2211,56.046826625387,50.0
2212,57.20297987616099,50.0
2213,56.94659442724459,50.0
2214,60.42956656346749,50.0
2215,61.851780185758514,50.0
2216,57.92376160990712,50.0
2217,57.193304953560364,50.0
2218,64.1060371517028,50.0
2219,59.01702786377709,50.0
2220,55.195433436532504,50.0
2221,63.767414860681114,50.0
2222,59.249226006191954,50.0
2223,60.076431888544896,50.0
2224,58.402670278637764,50.0
2225,57.13525541795666,50.0
2226,62.41292569659442,50.0
2227,49.24051857585139,50.0
2228,58.6638931888545,50.0
2229,62.71284829721361,50.0
2230,55.81462848297213,50.0
2231,61.169698142414866,50.0
2232,60.381191950464384,50.0
2233,60.67143962848298,50.0
2234,55.24380804953561,50.0
2235,57.856037151702786,50.0
2236,68.75,50.0
2237,61.61474458204333,50.0
2238,61.25677244582043,50.0
2239,60.85526315789473,50.0
2240,61.16486068111455,50.0
2241,64.50754643962848,50.0
2242,56.63215944272446,50.0
2243,65.32507739938079,50.0
2244,62.96923374613004,50.0
2245,62.73703560371517,50.0
2246,60.42472910216719,50.0
2247,60.565015479876166,50.0
2248,59.268575851393194,50.0
2249,57.183630030959755,50.0
2250,56.62248452012384,50.0
2251,54.73587461300309,50.0
2252,57.41099071207431,50.0
2253,60.71981424148608,50.0
2254,61.68246904024768,50.0
2255,55.9404024767802,50.0
2256,54.910023219814235,50.0
2257,58.43169504643962,50.0
2258,61.43092105263157,50.0
2259,58.24303405572756,50.0
2260,61.28095975232197,50.0
2261,59.96517027863778,50.0
2262,61.71633126934984,50.0
2263,57.57546439628483,50.0
2264,57.91408668730651,50.0
2265,59.92163312693498,50.0
2266,59.53947368421053,50.0
2267,61.70181888544891,50.0
2268,58.18014705882352,50.0
2269,55.48084365325077,50.0
2270,58.75580495356037,50.0
2271,58.82352941176472,50.0
2272,61.58088235294116,50.0
2273,54.40692724458205,50.0
2274,60.9858746130031,50.0
2275,60.598877708978335,50.0
2276,56.607972136222905,50.0
2277,61.619582043343655,50.0
2278,59.23955108359133,50.0
2279,56.97561919504644,50.0
2280,59.51044891640867,50.0
2281,56.64183436532509,50.0
2282,58.078560371517035,50.0
2283,60.85042569659442,50.0
2284,58.015673374612994,50.0
2285,56.63215944272446,50.0
2286,59.18633900928792,50.0
2287,58.654218266253864,50.0
2288,56.28386222910217,50.0
2289,62.33552631578947,50.0
2290,60.202205882352935,50.0
2291,54.02476780185758,50.0
2292,53.15886222910217,50.0
2293,57.517414860681114,50.0
2294,55.089009287925684,50.0
2295,60.12480650154799,50.0
2296,56.53057275541796,50.0
2297,57.50290247678019,50.0
2298,56.090363777089784,50.0
2299,55.81462848297213,50.0
2300,58.083397832817326,50.0
2301,57.88989938080494,50.0
2302,58.934791021671835,50.0
2303,55.62113003095975,50.0
2304,57.444852941176464,50.0
2305,63.457817337461314,50.0
2306,57.227167182662534,50.0
2307,60.72948916408668,50.0
2308,53.64260835913312,50.0
2309,57.60448916408669,50.0
2310,61.04876160990712,50.0
2311,57.81250000000001,50.0
2312,57.75928792569659,50.0
2313,59.82488390092879,50.0
2314,62.75154798761609,50.0
2315,62.96439628482973,50.0
2316,58.68324303405573,50.0
2317,54.57140092879257,50.0
2318,59.278250773993804,50.0
2319,60.06191950464396,50.0
2320,63.085332817337466,50.0
2321,60.20704334365324,50.0
2322,62.63544891640866,50.0
2323,60.511803405572756,50.0
2324,54.84713622291022,50.0
2325,57.3094040247678,50.0
2326,59.00735294117647,50.0
2327,57.319078947368425,50.0
2328,60.618227554179555,50.0
2329,58.5187693498452,50.0
2330,64.01896284829722,50.0
2331,62.867647058823515,50.0
2332,59.76683436532508,50.0
2333,58.28657120743034,50.0
2334,60.71981424148606,50.0
2335,60.06675696594428,50.0
2336,60.289280185758514,50.0
2337,63.93672600619196,50.0
2338,54.39241486068112,50.0
2339,60.71497678018576,50.0
2340,59.553986068111456,50.0
2341,63.148219814241486,50.0
2342,59.29760061919506,50.0
2343,55.73239164086687,50.0
2344,59.84907120743034,50.0
2345,58.51876934984519,50.0
2346,60.31830495356038,50.0
2347,59.32178792569659,50.0
2348,58.760642414860676,50.0
2349,65.10255417956657,50.0
2350,54.39241486068111,50.0
2351,60.49245356037152,50.0
2352,61.41157120743033,50.0
2353,57.609326625387,50.0
2354,57.7109133126935,50.0
2355,58.533281733746136,50.0
2356,60.70046439628483,50.0
2357,60.3328173374613,50.0
2358,61.03908668730651,50.0
2359,59.19117647058823,50.0
2360,60.845588235294116,50.0
2361,60.44407894736842,50.0
2362,57.681888544891635,50.0
2363,60.89396284829722,50.0
2364,52.89280185758514,50.0
2365,63.58359133126935,50.0
2366,60.50696594427244,50.0
2367,60.41989164086687,50.0
2368,56.012964396284836,50.0
2369,59.4233746130031,50.0
2370,62.19523993808049,50.0
2371,59.41853715170278,50.0
2372,58.41718266253871,50.0
2373,57.40615325077399,50.0
2374,61.75503095975232,50.0
2375,63.27883126934984,50.0
2376,60.9858746130031,50.0
2377,56.288699690402474,50.0
2378,58.1124226006192,50.0
2379,60.99554953560373,50.0
2380,50.880417956656345,50.0
2381,59.22020123839009,50.0
2382,59.82004643962848,50.0
2383,55.61629256965944,50.0
2384,62.925696594427244,50.0
2385,57.80766253869969,50.0
2386,66.2248452012384,50.0
2387,59.30243808049535,50.0
2388,57.78831269349845,50.0
2389,57.64802631578947,50.0
2390,54.69233746130032,50.0
2391,57.73510061919506,50.0
2392,58.23819659442725,50.0
2393,55.224458204334354,50.0
2394,59.984520123839005,50.0
2395,61.71633126934984,50.0
2396,54.203753869969034,50.0
2397,54.861648606811144,50.0
2398,58.010835913312704,50.0
2399,63.39009287925695,50.0
2400,62.6499613003096,50.0
2401,62.238777089783284,50.0
2402,57.115905572755416,50.0
2403,61.7985681114551,50.0
2404,59.350812693498455,50.0
2405,58.00599845201238,50.0
2406,55.534055727554176,50.0
2407,58.71710526315789,50.0
2408,63.17724458204333,50.0
2409,56.72407120743034,50.0
2410,56.38061145510836,50.0
2411,57.04334365325077,50.0
2412,54.69717492260062,50.0
2413,57.885061919504636,50.0
2414,56.58378482972137,50.0
2415,56.53541021671827,50.0
2416,57.39164086687306,50.0
2417,61.924342105263165,50.0
2418,55.23413312693498,50.0
2419,57.004643962848306,50.0
2420,55.35023219814242,50.0
2421,60.932662538699695,50.0
2422,60.390866873065015,50.0
2423,54.058630030959755,50.0
2424,55.732391640866865,50.0
2425,57.86571207430341,50.0
2426,63.51102941176472,50.0
2427,55.90654024767802,50.0
2428,58.85255417956656,50.0
2429,52.43324303405572,50.0
2430,57.24651702786378,50.0
2431,56.95143188854489,50.0
2432,60.1296439628483,50.0
2433,57.70123839009288,50.0
2434,64.05282507739939,50.0
2435,58.71226780185758,50.0
2436,57.749613003095966,50.0
2437,58.591331269349844,50.0
2438,59.40402476780186,50.0
2439,59.137964396284836,50.0
2440,63.54489164086687,50.0
2441,56.3032120743034,50.0
2442,61.06811145510836,50.0
2443,57.64802631578948,50.0
2444,55.756578947368425,50.0
2445,60.63757739938081,50.0
2446,56.92724458204334,50.0
2447,58.596168730650156,50.0
2448,57.16911764705882,50.0
2449,57.6625386996904,50.0
2450,59.00251547987616,50.0
2451,61.02457430340558,50.0
2452,61.3390092879257,50.0
2453,59.05089009287926,50.0
2454,54.19891640866873,50.0
2455,58.18982198142414,50.0
2456,60.66176470588237,50.0
2457,53.526509287925684,50.0
2458,58.73645510835914,50.0
2459,63.74322755417957,50.0
2460,54.513351393188856,50.0
2461,53.773219814241486,50.0
2462,56.87403250773994,50.0
2463,60.405379256965944,50.0
2464,55.76625386996904,50.0
2465,57.42066563467492,50.0
2466,53.8796439628483,50.0
2467,58.68324303405573,50.0
2468,58.48490712074303,50.0
2469,59.86842105263158,50.0
2470,55.90654024767802,50.0
2471,59.099264705882355,50.0
2472,60.323142414860676,50.0
2473,53.903831269349844,50.0
2474,56.76277089783282,50.0
2475,61.78405572755419,50.0
2476,60.62306501547988,50.0
2477,59.16215170278639,50.0
2478,61.01973684210526,50.0
2479,60.95201238390093,50.0
2480,52.999226006191954,50.0
2481,57.86571207430341,50.0
2482,59.578173374612994,50.0
2483,57.81250000000001,50.0
2484,61.140673374613,50.0
2485,61.392221362229094,50.0
2486,55.132546439628484,50.0
2487,56.090363777089784,50.0
2488,61.479295665634695,50.0
2489,56.951431888544896,50.0
2490,62.26296439628483,50.0
2491,62.08397832817337,50.0
2492,58.43653250773993,50.0
2493,57.44969040247677,50.0
2494,61.36319659442726,50.0
2495,58.673568111455104,50.0
2496,59.15731424148606,50.0
2497,60.579527863777095,50.0
2498,54.039280185758514,50.0
2499,59.563660990712066,50.0
2500,56.51122291021672,50.0
2501,59.19117647058823,50.0
2502,58.373645510835914,50.0
2503,58.218846749225996,50.0
2504,58.480069659442734,50.0
2505,52.849264705882355,50.0
2506,62.954721362229094,50.0
2507,54.929373065015476,50.0
2508,58.89125386996904,50.0
2509,53.69098297213621,50.0
2510,60.46342879256966,50.0
2511,58.18014705882352,50.0
2512,57.754450464396285,50.0
2513,58.30592105263158,50.0
2514,60.95684984520124,50.0
2515,57.575464396284836,50.0
2516,58.55263157894737,50.0
2517,59.59752321981424,50.0
2518,55.68401702786378,50.0
2519,58.828366873065015,50.0
2520,56.138738390092875,50.0
2521,59.41853715170279,50.0
2522,56.20646284829721,50.0
2523,59.82972136222911,50.0
2524,57.88989938080495,50.0
2525,61.904992260061924,50.0
2526,57.28521671826625,50.0
2527,59.23955108359132,50.0
2528,61.145510835913306,50.0
2529,57.62867647058823,50.0
2530,51.99787151702786,50.0
2531,58.97349071207431,50.0
2532,55.84365325077399,50.0
2533,63.94156346749225,50.0
2534,60.879450464396285,50.0
2535,57.66737616099071,50.0
2536,58.54779411764706,50.0
2537,62.00657894736842,50.0
2538,55.05514705882353,50.0
2539,58.721942724458195,50.0
2540,62.05011609907121,50.0
2541,57.25619195046439,50.0
2542,57.62383900928793,50.0
2543,60.79721362229103,50.0
2544,60.21671826625387,50.0
2545,59.32662538699691,50.0
2546,57.02883126934985,50.0
2547,56.82082043343653,50.0
2548,54.8858359133127,50.0
2549,61.300309597523224,50.0
2550,59.72329721362229,50.0
2551,60.545665634674926,50.0
2552,65.11222910216718,50.0
2553,59.8732585139319,50.0
2554,57.517414860681114,50.0
2555,60.961687306501545,50.0
2556,58.499419504643974,50.0
2557,59.37016253869969,50.0
2558,63.12403250773994,50.0
2559,57.72058823529411,50.0
2560,58.16563467492261,50.0
2561,61.895317337461314,50.0
2562,59.58301083591331,50.0
2563,61.039086687306494,50.0
2564,62.8095975232198,50.0
2565,65.98297213622291,50.0
2566,57.638351393188856,50.0
2567,60.3860294117647,50.0
2568,57.280379256965944,50.0
2569,58.48006965944271,50.0
2570,57.81733746130031,50.0
2571,59.181501547987615,50.0
2572,53.855456656346746,50.0
2573,56.49671052631578,50.0
2574,57.70607585139318,50.0
2575,62.766060371517035,50.0
2576,57.164280185758514,50.0
2577,59.83455882352941,50.0
2578,61.84694272445821,50.0
2579,55.66950464396285,50.0
2580,60.574690402476776,50.0
2581,54.948722910216716,50.0
2582,56.791795665634666,50.0
2583,59.703947368421055,50.0
2584,60.68111455108359,50.0
2585,61.556695046439636,50.0
2586,55.73239164086688,50.0
2587,61.79856811145511,50.0
2588,56.980456656346746,50.0
2589,60.124806501547994,50.0
2590,59.38951238390092,50.0
2591,60.671439628482965,50.0
2592,59.06056501547988,50.0
2593,63.7093653250774,50.0
2594,63.312693498452006,50.0
2595,58.533281733746136,50.0
2596,57.638351393188856,50.0
2597,55.176083591331285,50.0
2598,55.12770897832817,50.0
2599,58.601006191950475,50.0
2600,58.96381578947369,50.0
2601,64.36726006191951,50.0
2602,58.5187693498452,50.0
2603,56.51122291021671,50.0
2604,62.02592879256967,50.0
2605,58.63003095975232,50.0
2606,62.277476780185744,50.0
2607,56.578947368421055,50.0
2608,55.78076625386997,50.0
2609,57.60932662538699,50.0
2610,58.765479876160995,50.0
2611,60.74400154798762,50.0
2612,59.03637770897833,50.0
2613,60.269930340557266,50.0
2614,61.87596749226006,50.0
2615,61.4454334365325,50.0
2616,59.40886222910217,50.0
2617,57.89473684210526,50.0
2618,57.31907894736841,50.0
2619,54.494001547987615,50.0
2620,62.3935758513932,50.0
2621,65.828173374613,50.0
2622,59.57333591331269,50.0
2623,60.63757739938081,50.0
2624,59.10893962848298,50.0
2625,59.59268575851394,50.0
2626,61.880804953560364,50.0
2627,57.202979876161,50.0
2628,59.75715944272447,50.0
2629,57.55611455108359,50.0
2630,55.558243034055735,50.0
2631,58.65905572755418,50.0
2632,56.18227554179566,50.0
2633,61.74051857585138,50.0
2634,61.8034055727554,50.0
2635,60.81172600619196,50.0
2636,60.15383126934984,50.0
2637,56.81598297213623,50.0
2638,58.422020123839,50.0
2639,55.5969427244582,50.0
2640,57.469040247678016,50.0
2641,59.10893962848297,50.0
2642,58.330108359133135,50.0
2643,57.73993808049535,50.0
2644,59.38951238390093,50.0
2645,59.29276315789473,50.0
2646,56.47736068111456,50.0
2647,55.87267801857585,50.0
2648,61.247097523219814,50.0
2649,56.88854489164086,50.0
2650,58.07856037151702,50.0
2651,55.688854489164086,50.0
2652,57.19814241486069,50.0
2653,61.247097523219814,50.0
2654,57.73026315789474,50.0
2655,61.53250773993809,50.0
2656,58.76064241486068,50.0
2657,59.58784829721362,50.0
2658,61.76954334365326,50.0
2659,55.13738390092879,50.0
2660,60.45859133126935,50.0
2661,56.36609907120742,50.0
2662,62.296826625386984,50.0
2663,60.41021671826625,50.0
2664,59.64589783281735,50.0
2665,56.41931114551084,50.0
2666,59.17666408668732,50.0
2667,58.60584365325077,50.0
2668,59.20568885448917,50.0
2669,65.07836687306501,50.0
2670,56.78695820433436,50.0
2671,59.58784829721362,50.0
2672,57.89957430340558,50.0
2673,54.33436532507739,50.0
2674,61.16002321981424,50.0
2675,58.42685758513932,50.0
2676,57.2561919504644,50.0
2677,53.86029411764705,50.0
2678,57.95278637770898,50.0
2679,61.01006191950464,50.0
2680,57.73026315789474,50.0
2681,60.94717492260061,50.0
2682,60.632739938080505,50.0
2683,59.60236068111455,50.0
2684,60.50696594427245,50.0
2685,60.07159442724458,50.0
2686,58.70259287925697,50.0
2687,57.42066563467492,50.0
2688,61.571207430340564,50.0
2689,54.208591331269346,50.0
2690,59.80069659442725,50.0
2691,58.015673374613,50.0
2692,58.0108359133127,50.0
2693,54.70684984520124,50.0
2694,59.921633126934985,50.0
2695,60.48761609907121,50.0
2696,57.42066563467492,50.0
2697,57.87054953560372,50.0
2698,63.21110681114551,50.0
2699,59.936145510835914,50.0
2700,59.85390866873065,50.0
2701,61.82275541795666,50.0
2702,64.34791021671828,50.0
2703,58.0640479876161,50.0
2704,59.249226006191954,50.0
2705,60.139318885448915,50.0
2706,55.7420665634675,50.0
2707,60.874613003095966,50.0
2708,57.70607585139318,50.0
2709,61.50348297213621,50.0
2710,60.74883900928794,50.0
2711,57.41582817337461,50.0
2712,54.629450464396285,50.0
2713,59.53463622291022,50.0
2714,61.16969814241488,50.0
2715,54.62461300309597,50.0
2716,58.74613003095975,50.0
2717,55.45665634674923,50.0
2718,53.46362229102168,50.0
2719,59.32662538699691,50.0
2720,63.77708978328174,50.0
2721,59.21536377708977,50.0
2722,56.898219814241486,50.0
2723,56.74342105263158,50.0
2724,56.49671052631579,50.0
2725,62.20007739938081,50.0
2726,56.63215944272446,50.0
2727,59.882933436532504,50.0
2728,54.67298761609908,50.0
2729,54.84229876160991,50.0
2730,59.36532507739937,50.0
2731,57.92376160990711,50.0
2732,54.9970975232198,50.0
2733,58.455882352941174,50.0
2734,59.4765866873065,50.0
2735,63.796439628482965,50.0
2736,57.048181114551085,50.0
2737,62.161377708978335,50.0
2738,58.14144736842105,50.0
2739,61.67279411764706,50.0
2740,59.18633900928792,50.0
2741,53.95220588235295,50.0
2742,60.59887770897832,50.0
2743,62.20975232198142,50.0
2744,57.44969040247678,50.0
2745,58.755804953560364,50.0
2746,59.234713622291025,50.0
2747,57.17395510835913,50.0
2748,54.36339009287925,50.0
2749,61.52767027863777,50.0
2750,60.066756965944286,50.0
2751,55.39376934984519,50.0
2752,55.369582043343655,50.0
2753,54.05379256965944,50.0
2754,55.742066563467496,50.0
2755,56.50638544891641,50.0
2756,62.862809597523224,50.0
2757,57.633513931888544,50.0
2758,58.18014705882352,50.0
2759,59.19117647058823,50.0
2760,62.94988390092879,50.0
2761,58.91544117647059,50.0
2762,58.82836687306502,50.0
2763,59.92163312693498,50.0
2764,52.921826625387,50.0
2765,56.293537151702786,50.0
2766,54.80359907120743,50.0
2767,56.88854489164086,50.0
2768,55.988777089783284,50.0
2769,63.21110681114551,50.0
2770,62.78057275541795,50.0
2771,61.31965944272446,50.0
2772,56.627321981424146,50.0
2773,58.794504643962846,50.0
2774,62.39357585139319,50.0
2775,62.96923374613002,50.0
2776,57.00464396284829,50.0
2777,59.07991486068111,50.0
2778,60.057082043343655,50.0
2779,56.38061145510836,50.0
2780,56.182275541795676,50.0
2781,63.491679566563455,50.0
2782,56.98045665634676,50.0
2783,59.08958978328173,50.0
2784,57.67221362229103,50.0
2785,58.344620743034056,50.0
2786,61.687306501548,50.0
2787,59.515286377708975,50.0
2788,57.89957430340557,50.0
2789,60.61822755417957,50.0
2790,58.51876934984519,50.0
2791,60.22155572755418,50.0
2792,58.12209752321981,50.0
2793,57.89957430340557,50.0
2794,57.46904024767801,50.0
2795,59.77650928792569,50.0
2796,58.73645510835914,50.0
2797,57.527089783281724,50.0
2798,57.18363003095975,50.0
2799,60.81172600619195,50.0
2800,56.51606037151703,50.0
2801,63.21110681114551,50.0
2802,57.986648606811144,50.0
2803,60.36667956656347,50.0
2804,57.53192724458204,50.0
2805,58.6687306501548,50.0
2806,58.53328173374613,50.0
2807,57.64802631578947,50.0
2808,58.24787151702787,50.0
2809,63.32720588235294,50.0
2810,64.88970588235294,50.0
2811,55.5969427244582,50.0
2812,57.93343653250775,50.0
2813,58.70743034055727,50.0
2814,55.18092105263158,50.0
2815,60.594040247678016,50.0
2816,60.09094427244582,50.0
2817,61.595394736842096,50.0
2818,57.82217492260062,50.0
2819,59.61203560371517,50.0
2820,62.558049535603715,50.0
2821,56.487035603715164,50.0
2822,59.500773993808046,50.0
2823,63.36106811145511,50.0
2824,60.21188080495355,50.0
2825,59.24922600619194,50.0
2826,53.986068111455126,50.0
2827,58.66873065015481,50.0
2828,58.75580495356038,50.0
2829,58.91544117647059,50.0
2830,58.644543343653254,50.0
2831,59.22987616099072,50.0
2832,58.513931888544896,50.0
2833,59.45723684210527,50.0
2834,60.327979876160995,50.0
2835,62.42743808049536,50.0
2836,59.61687306501548,50.0
2837,60.71981424148606,50.0
2838,58.35913312693498,50.0
2839,58.73161764705883,50.0
2840,54.55205108359134,50.0
2841,59.23471362229103,50.0
2842,57.76412538699691,50.0
2843,62.28715170278639,50.0
2844,60.405379256965944,50.0
2845,56.782120743034056,50.0
2846,57.672213622291025,50.0
2847,59.104102167182674,50.0
2848,63.96575077399381,50.0
2849,61.65344427244581,50.0
2850,60.98103715170278,50.0
2851,61.934017027863774,50.0
2852,57.79798761609908,50.0
2853,57.86087461300309,50.0
2854,55.572755417956664,50.0
2855,56.62732198142414,50.0
2856,59.868421052631575,50.0
2857,53.80708204334366,50.0
2858,57.943111455108365,50.0
2859,64.37209752321982,50.0
2860,57.270704334365334,50.0
2861,57.638351393188856,50.0
2862,58.10758513931888,50.0
2863,57.95762383900928,50.0
2864,58.51393188854489,50.0
2865,56.288699690402474,50.0
2866,61.11164860681114,50.0
2867,61.8953173374613,50.0
2868,58.85255417956657,50.0
2869,56.63215944272445,50.0
2870,56.2016253869969,50.0
2871,56.33223684210526,50.0
2872,56.022639318885446,50.0
2873,59.41369969040248,50.0
2874,57.672213622291025,50.0
2875,57.096555727554176,50.0
2876,62.016253869969034,50.0
2877,58.33494582043343,50.0
2878,57.58997678018576,50.0
2879,53.971555727554176,50.0
2880,57.62867647058824,50.0
2881,58.93479102167183,50.0
2882,62.77089783281734,50.0
2883,62.05979102167183,50.0
2884,59.142801857585134,50.0
2885,59.684597523219814,50.0
2886,58.659055727554176,50.0
2887,58.58165634674922,50.0
2888,54.256965944272444,50.0
2889,65.4169891640867,50.0
2890,54.919698142414866,50.0
2891,63.32236842105265,50.0
2892,55.52438080495355,50.0
2893,56.30804953560372,50.0
2894,56.220975232198136,50.0
2895,59.24438854489164,50.0
2896,58.441369969040245,50.0
2897,54.52302631578948,50.0
2898,58.9734907120743,50.0
2899,55.65982972136223,50.0
2900,59.69910990712074,50.0
2901,64.61397058823529,50.0
2902,59.43304953560372,50.0
2903,60.1344814241486,50.0
2904,57.725425696594435,50.0
2905,57.52708978328174,50.0
2906,61.00038699690402,50.0
2907,54.41176470588236,50.0
2908,58.775154798761605,50.0
2909,59.05089009287926,50.0
2910,60.361842105263165,50.0
2911,55.35023219814242,50.0
2912,57.01431888544891,50.0
2913,56.99013157894736,50.0
2914,59.650735294117645,50.0
2915,56.4483359133127,50.0
2916,59.684597523219814,50.0
2917,52.89280185758514,50.0
2918,57.02399380804954,50.0
2919,54.576238390092875,50.0
2920,63.71420278637771,50.0
2921,60.729489164086694,50.0
2922,53.37171052631579,50.0
2923,58.03018575851393,50.0
2924,62.03560371517028,50.0
2925,61.78889318885449,50.0
2926,58.663893188854495,50.0
2927,61.63409442724457,50.0
2928,62.11300309597523,50.0
2929,62.56288699690402,50.0
2930,57.401315789473685,50.0
2931,58.33978328173375,50.0
2932,56.327399380804955,50.0
2933,62.24361455108359,50.0
2934,56.71923374613003,50.0
2935,58.28173374613004,50.0
2936,61.900154798761605,50.0
2937,55.16157120743035,50.0
2938,54.81327399380804,50.0
2939,53.08630030959753,50.0
2940,57.870549535603715,50.0
2941,58.23819659442724,50.0
2942,61.83243034055725,50.0
2943,57.802825077399376,50.0
2944,54.842298761609904,50.0
2945,59.43788699690403,50.0
2946,59.283088235294116,50.0
2947,57.619001547987615,50.0
2948,57.94794891640867,50.0
2949,56.61764705882353,50.0
2950,62.38873839009288,50.0
2951,58.18498452012383,50.0
2952,60.35216718266255,50.0
2953,59.49593653250774,50.0
2954,56.54508513931888,50.0
2955,57.7641253869969,50.0
2956,57.754450464396285,50.0
2957,60.753676470588225,50.0
2958,56.92724458204335,50.0
2959,55.045472136222905,50.0
2960,65.00580495356039,50.0
2961,59.31211300309597,50.0
2962,59.00251547987616,50.0
2963,57.72542569659442,50.0
2964,60.74883900928793,50.0
2965,57.67705108359133,50.0
2966,59.02670278637771,50.0
2967,54.81327399380805,50.0
2968,55.35990712074304,50.0
2969,58.03502321981425,50.0
2970,55.63564241486068,50.0
2971,59.345975232198136,50.0
2972,57.24651702786378,50.0
2973,59.408862229102176,50.0
2974,59.06056501547989,50.0
2975,60.13931888544891,50.0
2976,59.85390866873064,50.0
2977,60.898800309597526,50.0
2978,56.53057275541796,50.0
2979,59.87809597523219,50.0
2980,61.20839783281734,50.0
2981,61.10681114551083,50.0
2982,54.14086687306502,50.0
2983,59.00251547987616,50.0
2984,56.743421052631575,50.0
2985,55.621130030959755,50.0
2986,56.09520123839009,50.0
2987,59.42821207430341,50.0
2988,58.09307275541795,50.0
2989,55.519543343653254,50.0
2990,58.55263157894737,50.0
2991,63.35623065015481,50.0
2992,53.83126934984521,50.0
2993,58.09307275541795,50.0
2994,57.802825077399376,50.0
2995,58.11242260061919,50.0
2996,60.545665634674926,50.0
2997,58.910603715170275,50.0
2998,58.74129256965945,50.0
2999,61.484133126934985,50.0
3000,54.78424922600619,50.0
3001,62.127515479876166,50.0
3002,57.473877708978335,50.0
3003,55.91137770897833,50.0
3004,55.66950464396285,50.0
3005,57.26586687306502,50.0
3006,58.968653250774004,50.0
3007,57.164280185758514,50.0
3008,57.488390092879264,50.0
3009,51.064241486068106,50.0
3010,59.815208978328165,50.0
3011,56.29353715170278,50.0
3012,60.55050309597523,50.0
3013,58.77999226006193,50.0
3014,58.78482972136222,50.0
3015,59.39434984520125,50.0
3016,61.90982972136223,50.0
3017,63.06598297213621,50.0
3018,57.328753869969034,50.0
3019,53.410410216718276,50.0
3020,56.95143188854489,50.0
3021,56.78695820433436,50.0
3022,60.274767801857585,50.0
3023,56.104876160990706,50.0
3024,58.39783281733746,50.0
3025,58.692917956656345,50.0
3026,61.75503095975233,50.0
3027,61.60506965944272,50.0
3028,57.82701238390093,50.0
3029,64.23664860681114,50.0
3030,58.75580495356038,50.0
3031,56.76760835913313,50.0
3032,57.265866873065015,50.0
3033,53.284636222910216,50.0
3034,59.7765092879257,50.0
3035,55.77592879256967,50.0
3036,58.0108359133127,50.0
3037,60.47310371517028,50.0
3038,62.6983359133127,50.0
3039,60.3860294117647,50.0
3040,62.05495356037153,50.0
3041,61.67279411764706,50.0
3042,56.390286377708975,50.0
3043,63.0563080495356,50.0
3044,62.26780185758515,50.0
3045,61.70181888544891,50.0
3046,61.31482198142415,50.0
3047,55.02128482972136,50.0
3048,63.486842105263165,50.0
3049,58.644543343653254,50.0
3050,53.976393188854495,50.0
3051,52.921826625387006,50.0
3052,59.83939628482972,50.0
3053,53.96671826625387,50.0
3054,61.996904024767794,50.0
3055,59.02670278637771,50.0
3056,59.481424148606806,50.0
3057,62.05495356037152,50.0
3058,60.13448142414861,50.0
3059,53.64260835913313,50.0
3060,57.61900154798762,50.0
3061,58.33010835913313,50.0
3062,58.35913312693498,50.0
3063,59.984520123839005,50.0
3064,57.65770123839009,50.0
3065,58.175309597523224,50.0
3066,61.07294891640866,50.0
3067,57.04818111455108,50.0
3068,54.914860681114554,50.0
3069,62.0984907120743,50.0
3070,55.0406346749226,50.0
3071,60.6762770897833,50.0
3072,58.015673374612994,50.0
3073,60.11996904024767,50.0
3074,58.08339783281734,50.0
3075,59.59752321981425,50.0
3076,58.39299535603715,50.0
3077,55.224458204334354,50.0
3078,56.36126160990712,50.0
3079,56.69988390092879,50.0
3080,58.64938080495356,50.0
3081,60.028057275541805,50.0
3082,62.78057275541795,50.0
3083,58.37364551083591,50.0
3084,56.898219814241486,50.0
3085,58.16079721362229,50.0
3086,56.58378482972137,50.0
3087,60.5359907120743,50.0
3088,53.5265092879257,50.0
3089,55.68401702786378,50.0
3090,58.5671439628483,50.0
3091,51.27708978328174,50.0
3092,59.56849845201238,50.0
3093,57.95762383900929,50.0
3094,58.23335913312693,50.0
3095,56.90789473684212,50.0
3096,60.845588235294116,50.0
3097,55.630804953560364,50.0
3098,60.323142414860676,50.0
3099,55.85816563467492,50.0
3100,60.74400154798761,50.0
3101,59.336300309597526,50.0
3102,58.34945820433437,50.0
3103,55.59210526315789,50.0
3104,63.02728328173375,50.0
3105,63.35139318885449,50.0
3106,58.630030959752325,50.0
3107,57.86087461300309,50.0
3108,58.58165634674922,50.0
3109,59.466911764705884,50.0
3110,56.1000386996904,50.0
3111,59.15247678018576,50.0
3112,53.51683436532508,50.0
3113,62.87732198142415,50.0
3114,53.04276315789474,50.0
3115,59.33146284829721,50.0
3116,58.11242260061919,50.0
3117,53.879643962848306,50.0
3118,64.55108359133128,50.0
3119,54.924535603715164,50.0
3120,62.50967492260061,50.0
3121,62.620936532507734,50.0
3122,58.24303405572755,50.0
3123,59.210526315789465,50.0
3124,54.75038699690403,50.0
3125,62.93537151702788,50.0
3126,60.211880804953566,50.0
3127,54.169891640866865,50.0
3128,60.352167182662534,50.0
3129,56.73858359133127,50.0
3130,53.04276315789473,50.0
3131,56.58378482972136,50.0
3132,58.24787151702786,50.0
3133,61.36319659442726,50.0
3134,63.36106811145511,50.0
3135,61.20839783281734,50.0
3136,62.62577399380805,50.0
3137,58.151122291021665,50.0
3138,60.46826625386996,50.0
3139,62.8531346749226,50.0
3140,55.505030959752325,50.0
3141,58.20917182662539,50.0
3142,60.531153250774,50.0
3143,58.223684210526315,50.0
3144,59.36048761609908,50.0
3145,59.52496130030959,50.0
3146,67.32778637770896,50.0
3147,56.225812693498455,50.0
3148,59.413699690402474,50.0
3149,54.35855263157895,50.0
3150,57.01915634674923,50.0
3151,58.276896284829725,50.0
3152,61.77921826625387,50.0
3153,55.29702012383901,50.0
3154,59.481424148606806,50.0
3155,59.15247678018576,50.0
3156,62.470975232198136,50.0
3157,56.927244582043336,50.0
3158,59.858746130030966,50.0
3159,58.262383900928796,50.0
3160,55.9984520123839,50.0
3161,61.15518575851394,50.0
3162,56.5547600619195,50.0
3163,59.786184210526315,50.0
3164,60.43924148606813,50.0
3165,59.20085139318886,50.0
3166,63.76257739938078,50.0
3167,59.33630030959753,50.0
3168,61.832430340557295,50.0
3169,58.14144736842105,50.0
3170,60.46826625386998,50.0
3171,57.21749226006192,50.0
3172,52.54450464396285,50.0
3173,55.282507739938076,50.0
3174,58.1172600619195,50.0
3175,61.31965944272446,50.0
3176,58.388157894736835,50.0
3177,53.2797987616099,50.0
3178,57.706075851393194,50.0
3179,58.997678018575854,50.0
3180,61.30514705882353,50.0
3181,59.13312693498452,50.0
3182,63.73839009287925,50.0
3183,65.06869195046438,50.0
3184,58.78966718266255,50.0
3185,58.71710526315789,50.0
3186,59.43788699690403,50.0
3187,62.79024767801858,50.0
3188,56.849845201238395,50.0
3189,62.94988390092879,50.0
3190,62.16621517027864,50.0
3191,57.09655572755418,50.0
3192,63.32236842105262,50.0
3193,60.10061919504644,50.0
3194,59.926470588235304,50.0
3195,60.77302631578947,50.0
3196,55.81462848297213,50.0
3197,56.8063080495356,50.0
3198,60.59887770897832,50.0
3199,58.24787151702787,50.0
3200,58.96865325077399,50.0
3201,56.438660990712066,50.0
3202,59.4282120743034,50.0
3203,56.57410990712075,50.0
3204,54.41176470588236,50.0
3205,54.997097523219814,50.0
3206,62.30650154798762,50.0
3207,56.26934984520124,50.0
3208,61.0874613003096,50.0
3209,60.89396284829721,50.0
3210,61.41640866873064,50.0
3211,61.41640866873065,50.0
3212,61.97271671826625,50.0
3213,59.64106037151703,50.0
3214,62.12751547987615,50.0
3215,60.124806501547994,50.0
3216,57.79798761609908,50.0
3217,58.465557275541805,50.0
3218,60.531153250774,50.0
3219,54.57140092879257,50.0
3220,57.425503095975245,50.0
3221,59.994195046439636,50.0
3222,61.5421826625387,50.0
3223,58.98800309597522,50.0
3224,61.672794117647044,50.0
3225,56.89338235294118,50.0
3226,56.08552631578947,50.0
3227,55.57759287925696,50.0
3228,55.17124613003096,50.0
3229,58.63970588235294,50.0
3230,53.086300309597526,50.0
3231,60.695626934984524,50.0
3232,61.29547213622292,50.0
3233,60.100619195046434,50.0
3234,56.88370743034056,50.0
3235,56.23548761609908,50.0
3236,63.3659055727554,50.0
3237,58.40267027863777,50.0
3238,55.86300309597524,50.0
3239,57.34326625386997,50.0
3240,57.5561145510836,50.0
3241,58.359133126934985,50.0
3242,57.449690402476776,50.0
3243,58.296246130030966,50.0
3244,55.35023219814242,50.0
3245,55.2921826625387,50.0
3246,59.45723684210526,50.0
3247,57.589976780185765,50.0
3248,58.663893188854495,50.0
3249,60.424729102167184,50.0
3250,53.96188080495356,50.0
3251,57.028831269349844,50.0
3252,58.98800309597523,50.0
3253,60.371517027863774,50.0
3254,60.04256965944271,50.0
3255,58.63970588235294,50.0
3256,58.697755417956664,50.0
3257,61.26160990712075,50.0
3258,57.575464396284836,50.0
3259,56.23065015479876,50.0
3260,57.609326625387006,50.0
3261,57.09171826625388,50.0
3262,62.00174148606811,50.0
3263,62.204914860681114,50.0
3264,60.27960526315789,50.0
3265,62.08397832817337,50.0
3266,56.61280959752322,50.0
3267,60.49245356037152,50.0
3268,58.779992260061924,50.0
3269,61.09713622291021,50.0
3270,59.37983746130031,50.0
3271,58.15112229102167,50.0
3272,57.89473684210526,50.0
3273,55.988777089783284,50.0
3274,58.63486842105264,50.0
3275,62.92569659442723,50.0
3276,57.72542569659443,50.0
3277,58.093072755417964,50.0
3278,58.19949690402478,50.0
3279,55.059984520123834,50.0
3280,55.553405572755416,50.0
3281,58.649380804953566,50.0
3282,61.39222136222911,50.0
3283,59.88777089783282,50.0
3284,59.89260835913312,50.0
3285,57.822174922600624,50.0
3286,64.03347523219814,50.0
3287,58.59133126934984,50.0
3288,55.45181888544891,50.0
3289,60.45859133126934,50.0
3290,56.07101393188855,50.0
3291,60.04256965944273,50.0
3292,57.90924922600618,50.0
3293,62.12267801857583,50.0
3294,58.95897832817337,50.0
3295,60.45859133126935,50.0
3296,65.54276315789475,50.0
3297,59.03154024767802,50.0
3298,52.96052631578947,50.0
3299,57.69640092879257,50.0
3300,61.324496904024755,50.0
3301,57.04334365325077,50.0
3302,56.47736068111456,50.0
3303,59.40886222910217,50.0
3304,59.84423374613002,50.0
3305,57.67705108359133,50.0
3306,57.56578947368421,50.0
3307,61.99690402476782,50.0
3308,60.40537925696596,50.0
3309,58.422020123839,50.0
3310,56.64667182662538,50.0
3311,60.734326625387,50.0
3312,60.00386996904024,50.0
3313,63.409442724458195,50.0
3314,60.60371517027864,50.0
3315,59.433049535603715,50.0
3316,59.01219040247678,50.0
3317,60.29895510835913,50.0
3318,61.90015479876162,50.0
3319,59.87809597523219,50.0
3320,57.93343653250775,50.0
3321,54.431114551083596,50.0
3322,60.7875386996904,50.0
3323,56.99980650154799,50.0
3324,58.61068111455108,50.0
3325,58.95414086687306,50.0
3326,56.47252321981425,50.0
3327,60.932662538699695,50.0
3328,58.18498452012385,50.0
3329,59.18633900928792,50.0
3330,59.47658668730649,50.0
3331,61.0342492260062,50.0
3332,61.9436919504644,50.0
3333,63.27399380804953,50.0
3334,58.67840557275541,50.0
3335,57.34326625386997,50.0
3336,59.10410216718267,50.0
3337,59.09926470588235,50.0
3338,62.214589783281724,50.0
3339,58.10274767801858,50.0
3340,64.11571207430339,50.0
3341,55.906540247678016,50.0
3342,57.24651702786378,50.0
3343,55.64531733746131,50.0
3344,60.64725232198142,50.0
3345,58.59616873065016,50.0
3346,59.76683436532508,50.0
3347,59.33146284829722,50.0
3348,59.96517027863778,50.0
3349,62.13235294117647,50.0
3350,55.41795665634675,50.0
3351,58.4703947368421,50.0
3352,58.67356811145511,50.0
3353,59.336300309597526,50.0
3354,61.817917956656345,50.0
3355,57.619001547987615,50.0
3356,62.32585139318886,50.0
3357,57.12074303405573,50.0
3358,61.8372678018576,50.0
3359,57.47871517027865,50.0
3360,58.596168730650156,50.0
3361,62.33068885448917,50.0
3362,63.34171826625386,50.0
3363,57.706075851393194,50.0
3364,59.01702786377708,50.0
3365,54.87132352941177,50.0
3366,56.67085913312693,50.0
3367,56.593459752321984,50.0
3368,68.24690402476779,50.0
3369,61.687306501547994,50.0
3370,60.22155572755418,50.0
3371,57.527089783281724,50.0
3372,64.32856037151703,50.0
3373,58.43169504643963,50.0
3374,53.216911764705884,50.0
3375,59.568498452012385,50.0
3376,60.323142414860676,50.0
3377,57.65770123839009,50.0
3378,58.63970588235294,50.0
3379,59.38951238390092,50.0
3380,57.12558049535603,50.0
3381,58.77999226006192,50.0
3382,64.86068111455108,50.0
3383,61.64860681114551,50.0
3384,63.249806501547994,50.0
3385,58.34945820433436,50.0
3386,58.00599845201238,50.0
3387,59.37016253869969,50.0
3388,57.54643962848297,50.0
3389,62.591911764705884,50.0
3390,56.864357585139324,50.0
3391,56.046826625387,50.0
3392,61.01006191950463,50.0
3393,61.27612229102168,50.0
3394,62.3016640866873,50.0
3395,62.91118421052631,50.0
3396,59.10410216718267,50.0
3397,55.55824303405572,50.0
3398,58.659055727554176,50.0
3399,59.69427244582043,50.0
3400,67.66640866873065,50.0
3401,64.60913312693499,50.0
3402,58.857391640866865,50.0
3403,57.17395510835913,50.0
3404,57.85119969040248,50.0
3405,55.766253869969034,50.0
3406,59.53947368421052,50.0
3407,58.30108359133127,50.0
3408,60.50212848297215,50.0
3409,59.1669891640867,50.0
3410,56.472523219814256,50.0
3411,63.01760835913313,50.0
3412,64.1108746130031,50.0
3413,60.52147832817337,50.0
3414,59.31211300309598,50.0
3415,62.72736068111455,50.0
3416,63.64164086687305,50.0
3417,57.17395510835914,50.0
3418,59.07507739938081,50.0
3419,59.58301083591332,50.0
3420,57.9624613003096,50.0
3421,57.69156346749226,50.0
3422,59.76683436532508,50.0
3423,57.88022445820433,50.0
3424,59.849071207430335,50.0
3425,57.8076625386997,50.0
3426,60.61822755417957,50.0
3427,55.219620743034056,50.0
3428,58.262383900928796,50.0
3429,59.85390866873065,50.0
3430,60.289280185758514,50.0
3431,64.73006965944272,50.0
3432,57.33359133126936,50.0
3433,54.92453560371517,50.0
3434,58.659055727554176,50.0
3435,53.37654798761609,50.0
3436,60.17801857585138,50.0
3437,62.016253869969034,50.0
3438,54.80359907120742,50.0
3439,56.61280959752322,50.0
3440,56.74825851393189,50.0
3441,53.59423374613003,50.0
3442,58.339783281733745,50.0
3443,52.994388544891635,50.0
3444,54.319852941176464,50.0
3445,59.070239938080505,50.0
3446,57.04818111455109,50.0
3447,56.75793343653251,50.0
3448,61.61474458204333,50.0
3449,56.00328947368421,50.0
3450,61.213235294117645,50.0
3451,53.231424148606806,50.0
3452,61.01489938080495,50.0
3453,62.06946594427245,50.0
3454,58.92995356037152,50.0
3455,55.19543343653251,50.0
3456,59.921633126934985,50.0
3457,58.238196594427244,50.0
3458,58.89125386996904,50.0
3459,54.43111455108358,50.0
3460,54.72136222910217,50.0
3461,53.990905572755416,50.0
3462,56.68537151702787,50.0
3463,56.66602167182663,50.0
3464,58.475232198142415,50.0
3465,61.76954334365325,50.0
3466,60.729489164086694,50.0
3467,59.97484520123839,50.0
3468,58.978328173374614,50.0
3469,61.8953173374613,50.0
3470,60.361842105263165,50.0
3471,59.46691176470589,50.0
3472,61.19872291021673,50.0
3473,55.925890092879264,50.0
3474,58.746130030959755,50.0
3475,60.816563467492266,50.0
3476,60.371517027863774,50.0
3477,57.39647832817337,50.0
3478,53.65712074303406,50.0
3479,62.56772445820434,50.0
3480,56.390286377708975,50.0
3481,55.80979102167183,50.0
3482,63.26915634674923,50.0
3483,57.61416408668731,50.0
3484,60.337654798761605,50.0
3485,58.78482972136223,50.0
3486,55.974264705882355,50.0
3487,59.38467492260062,50.0
3488,58.96381578947369,50.0
3489,56.38544891640867,50.0
3490,57.84636222910217,50.0
3491,59.055727554179576,50.0
3492,57.12558049535604,50.0
3493,56.27902476780186,50.0
3494,57.536764705882355,50.0
3495,61.01006191950464,50.0
3496,56.41447368421053,50.0
3497,59.965170278637785,50.0
3498,57.47387770897833,50.0
3499,60.178018575851404,50.0
3500,56.85952012383901,50.0
3501,64.35758513931889,50.0
3502,62.31617647058823,50.0
3503,58.79450464396285,50.0
3504,59.26373839009288,50.0
3505,61.029411764705884,50.0
3506,57.02399380804954,50.0
3507,59.04121517027864,50.0
3508,57.08204334365325,50.0
3509,59.39434984520124,50.0
3510,59.88777089783281,50.0
3511,55.45181888544891,50.0
3512,59.95065789473684,50.0
3513,60.91815015479876,50.0
3514,58.77031733746129,50.0
3515,62.88699690402477,50.0
3516,56.898219814241486,50.0
3517,61.91950464396285,50.0
3518,56.941756965944265,50.0
3519,59.31695046439628,50.0
3520,54.914860681114554,50.0
3521,59.64106037151703,50.0
3522,60.77786377708979,50.0
3523,53.18304953560371,50.0
3524,57.50290247678019,50.0
3525,57.83668730650155,50.0
3526,57.37712848297214,50.0
3527,58.170472136222905,50.0
3528,60.50212848297213,50.0
3529,55.31636996904025,50.0
3530,62.16137770897832,50.0
3531,59.616873065015476,50.0
3532,60.192530959752325,50.0
3533,62.529024767801864,50.0
3534,55.877515479876166,50.0
3535,56.70472136222911,50.0
3536,57.585139318885446,50.0
3537,58.625193498452006,50.0
3538,60.95684984520124,50.0
3539,62.48548761609907,50.0
3540,62.59674922600619,50.0
3541,58.45104489164087,50.0
3542,60.92782507739939,50.0
3543,56.25967492260062,50.0
3544,61.0874613003096,50.0
3545,53.79256965944273,50.0
3546,53.2265866873065,50.0
3547,60.139318885448915,50.0
3548,57.80282507739938,50.0
3549,58.17047213622291,50.0
3550,56.535410216718255,50.0
3551,57.59481424148607,50.0
3552,63.12403250773994,50.0
3553,60.03773219814242,50.0
3554,62.84829721362228,50.0
3555,61.79373065015481,50.0
3556,59.63138544891641,50.0
3557,55.46633126934985,50.0
3558,57.11590557275542,50.0
3559,59.046052631578945,50.0
3560,62.01141640866874,50.0
3561,60.09578173374613,50.0
3562,60.41021671826625,50.0
3563,64.77844427244584,50.0
3564,57.97213622291022,50.0
3565,51.809210526315795,50.0
3566,62.98858359133128,50.0
3567,61.145510835913306,50.0
3568,53.88448142414861,50.0
3569,59.341137770897824,50.0
3570,61.49864551083592,50.0
3571,57.0094814241486,50.0
3572,61.005224458204324,50.0
3573,59.43788699690403,50.0
3574,63.93188854489163,50.0
3575,60.8891253869969,50.0
3576,61.84210526315789,50.0
3577,57.27070433436533,50.0
3578,60.327979876160995,50.0
3579,60.105456656346746,50.0
3580,61.26160990712075,50.0
3581,57.62867647058823,50.0
3582,57.914086687306494,50.0
3583,62.64512383900929,50.0
3584,57.02399380804954,50.0
3585,53.63293343653251,50.0
3586,60.49729102167183,50.0
3587,56.854682662538686,50.0
3588,54.19891640866873,50.0
3589,56.254837461300305,50.0
3590,58.74129256965944,50.0
3591,60.46342879256966,50.0
3592,59.287925696594435,50.0
3593,61.68246904024768,50.0
3594,60.603715170278626,50.0
3595,62.809597523219814,50.0
3596,60.18769349845201,50.0
3597,53.724845201238395,50.0
3598,54.56656346749226,50.0
3599,61.687306501547994,50.0
3600,58.910603715170275,50.0
3601,59.9313080495356,50.0
3602,59.19601393188854,50.0
3603,56.39512383900929,50.0
3604,58.0640479876161,50.0
3605,59.25406346749226,50.0
3606,60.835913312693506,50.0
3607,56.80630804953561,50.0
3608,58.402670278637764,50.0
3609,58.86706656346749,50.0
3610,59.18633900928791,50.0
3611,58.3155959752322,50.0
3612,54.71652476780186,50.0
3613,62.36455108359132,50.0
3614,59.92163312693498,50.0
3615,61.36803405572755,50.0
3616,56.574109907120736,50.0
3617,58.42202012383901,50.0
3618,59.56366099071208,50.0
3619,54.85197368421053,50.0
3620,59.583010835913306,50.0
3621,55.54373065015479,50.0
3622,54.47948916408669,50.0
3623,56.49671052631578,50.0
3624,61.774380804953566,50.0
3625,54.68749999999999,50.0
3626,59.234713622291025,50.0
3627,63.511029411764696,50.0
3628,57.8657120743034,50.0
3629,61.79856811145511,50.0
3630,59.58784829721362,50.0
3631,60.46826625386998,50.0
3632,54.72136222910217,50.0
3633,65.27670278637768,50.0
3634,58.5719814241486,50.0
3635,52.205882352941174,50.0
3636,56.49671052631579,50.0
3637,61.290634674922615,50.0
3638,57.51741486068111,50.0
3639,56.53057275541796,50.0
3640,61.36803405572756,50.0
3641,62.36938854489163,50.0
3642,57.904411764705884,50.0
3643,56.93691950464395,50.0
3644,57.202979876160995,50.0
3645,59.59268575851394,50.0
3646,59.86842105263158,50.0
3647,56.10487616099071,50.0
3648,55.84849071207431,50.0
3649,58.89125386996904,50.0
3650,57.773800309597526,50.0
3651,55.87751547987616,50.0
3652,57.096555727554176,50.0
3653,61.76470588235294,50.0
3654,58.789667182662534,50.0
3655,58.789667182662534,50.0
3656,57.44485294117647,50.0
3657,56.245162538699695,50.0
3658,53.971555727554176,50.0
3659,60.26509287925696,50.0
3660,58.639705882352935,50.0
3661,58.11726006191951,50.0
3662,59.19117647058823,50.0
3663,59.74748452012384,50.0
3664,56.607972136222905,50.0
3665,61.96304179566564,50.0
3666,56.898219814241486,50.0
3667,61.33417182662539,50.0
3668,57.19330495356037,50.0
3669,56.73858359133127,50.0
3670,59.549148606811144,50.0
3671,58.925116099071204,50.0
3672,64.63332043343654,50.0
3673,57.38680340557275,50.0
3674,61.02941176470587,50.0
3675,59.800696594427244,50.0
3676,54.51335139318886,50.0
3677,58.57681888544893,50.0
3678,58.42685758513932,50.0
3679,60.63757739938081,50.0
3680,62.39841331269349,50.0
3681,58.5671439628483,50.0
3682,66.31675696594426,50.0
3683,54.89551083591331,50.0
3684,59.25406346749226,50.0
3685,60.56985294117647,50.0
3686,55.47600619195047,50.0
3687,58.18982198142415,50.0
3688,59.597523219814235,50.0
3689,57.42066563467492,50.0
3690,58.00116099071208,50.0
3691,58.02051083591331,50.0
3692,57.38196594427244,50.0
3693,53.44910990712074,50.0
3694,59.96033281733746,50.0
3695,57.938273993808046,50.0
3696,58.122097523219814,50.0
3697,60.37151702786379,50.0
3698,61.08262383900929,50.0
3699,54.16021671826626,50.0
3700,59.133126934984524,50.0
3701,59.13796439628483,50.0
3702,57.27554179566564,50.0
3703,58.692917956656345,50.0
3704,61.261609907120736,50.0
3705,62.175890092879236,50.0
3706,56.62248452012384,50.0
3707,63.20626934984519,50.0
3708,56.25483746130031,50.0
3709,59.162151702786375,50.0
3710,55.14705882352941,50.0
3711,55.42279411764705,50.0
3712,61.39222136222911,50.0
3713,60.153831269349844,50.0
3714,63.815789473684205,50.0
3715,58.48490712074303,50.0
3716,57.58513931888545,50.0
3717,57.98181114551084,50.0
3718,57.227167182662534,50.0
3719,55.22445820433436,50.0
3720,60.34732972136223,50.0
3721,57.66253869969041,50.0
3722,61.203560371517035,50.0
3723,58.77515479876161,50.0
3724,61.66795665634674,50.0
3725,56.87886996904026,50.0
3726,59.96033281733747,50.0
3727,59.24438854489164,50.0
3728,59.94098297213622,50.0
3729,52.84442724458205,50.0
3730,59.036377708978335,50.0
3731,59.05572755417957,50.0
3732,56.32256191950466,50.0
3733,53.8796439628483,50.0
3734,61.18421052631578,50.0
3735,60.15383126934984,50.0
3736,57.22232972136222,50.0
3737,58.68808049535603,50.0
3738,59.68459752321982,50.0
3739,62.500000000000014,50.0
3740,62.050116099071204,50.0
3741,58.160797213622295,50.0
3742,60.89396284829721,50.0
3743,57.93827399380806,50.0
3744,54.39241486068112,50.0
3745,57.18846749226006,50.0
3746,62.88215944272446,50.0
3747,59.36048761609907,50.0
3748,60.44407894736842,50.0
3749,53.39589783281734,50.0
3750,63.46265479876162,50.0
3751,54.87616099071207,50.0
3752,58.47039473684211,50.0
3753,56.06133900928793,50.0
3754,60.269930340557266,50.0
3755,59.37500000000001,50.0
3756,59.660410216718276,50.0
3757,58.22852167182663,50.0
3758,60.255417956656345,50.0
3759,59.94098297213622,50.0
3760,59.59752321981425,50.0
3761,61.21807275541795,50.0
3762,62.37422600619195,50.0
3763,58.010835913312704,50.0
3764,57.991486068111456,50.0
3765,59.89260835913313,50.0
3766,57.739938080495364,50.0
3767,62.529024767801864,50.0
3768,60.21671826625387,50.0
3769,59.51044891640868,50.0
3770,60.0280572755418,50.0
3771,59.815208978328165,50.0
3772,59.10893962848297,50.0
3773,61.871130030959755,50.0
3774,55.56791795665635,50.0
3775,57.202979876160995,50.0
3776,62.243614551083574,50.0
3777,61.42124613003096,50.0
3778,60.52147832817337,50.0
3779,58.17047213622291,50.0
3780,62.45646284829722,50.0
3781,59.64589783281733,50.0
3782,61.25677244582043,50.0
3783,58.87674148606811,50.0
3784,62.0065789473684,50.0
3785,53.066950464396285,50.0
3786,52.718653250774,50.0
3787,57.40615325077398,50.0
3788,57.933436532507734,50.0
3789,62.11784055727554,50.0
3790,59.74264705882352,50.0
3791,58.48006965944273,50.0
3792,57.159442724458195,50.0
3793,57.44485294117647,50.0
3794,56.52573529411765,50.0
3795,62.98858359133126,50.0
3796,57.84152476780186,50.0
3797,59.14280185758514,50.0
3798,60.10061919504644,50.0
3799,54.59075077399382,50.0
3800,60.357004643962846,50.0
3801,60.342492260061924,50.0
3802,54.111842105263165,50.0
3803,58.06404798761609,50.0
3804,64.6671826625387,50.0
3805,59.229876160990706,50.0
3806,56.041989164086694,50.0
3807,53.744195046439636,50.0
3808,57.701238390092875,50.0
3809,57.991486068111456,50.0
3810,60.81172600619195,50.0
3811,59.6749226006192,50.0
3812,62.06462848297213,50.0
3813,60.96652476780185,50.0
3814,53.976393188854495,50.0
3815,63.7529024767802,50.0
3816,54.70201238390092,50.0
3817,59.19117647058823,50.0
3818,59.85390866873065,50.0
3819,56.1000386996904,50.0
3820,57.14493034055728,50.0
3821,54.71168730650155,50.0
3822,56.16292569659442,50.0
3823,57.04818111455109,50.0
3824,56.84017027863777,50.0
3825,59.297600619195045,50.0
3826,61.93885448916408,50.0
3827,58.5671439628483,50.0
3828,58.70743034055728,50.0
3829,56.54992260061919,50.0
3830,59.14280185758513,50.0
3831,59.65557275541795,50.0
3832,57.014318885448915,50.0
3833,60.7875386996904,50.0
3834,57.71575077399381,50.0
3835,60.139318885448915,50.0
3836,55.553405572755416,50.0
3837,55.422794117647065,50.0
3838,57.78347523219814,50.0
3839,58.16079721362229,50.0
3840,59.12345201238389,50.0
3841,56.675696594427244,50.0
3842,55.47600619195047,50.0
3843,63.60777863777089,50.0
3844,58.1172600619195,50.0
3845,56.87886996904025,50.0
3846,61.068111455108344,50.0
3847,63.92221362229102,50.0
3848,57.41099071207431,50.0
3849,63.12403250773994,50.0
3850,56.50638544891641,50.0
3851,62.33552631578946,50.0
3852,58.441369969040245,50.0
3853,56.97561919504644,50.0
3854,60.14415634674921,50.0
3855,59.24922600619194,50.0
3856,58.13177244582043,50.0
3857,58.596168730650156,50.0
3858,55.311532507739926,50.0
3859,57.720588235294116,50.0
3860,62.819272445820445,50.0
3861,57.22716718266254,50.0
3862,59.85390866873064,50.0
3863,59.65073529411764,50.0
3864,59.22020123839009,50.0
3865,62.538699690402474,50.0
3866,56.63215944272446,50.0
3867,57.35294117647059,50.0
3868,55.36958204334365,50.0
3869,63.288506191950454,50.0
3870,61.116486068111456,50.0
3871,59.215363777089784,50.0
3872,60.74883900928791,50.0
3873,54.35855263157894,50.0
3874,61.08262383900929,50.0
3875,55.97910216718267,50.0
3876,56.58378482972136,50.0
3877,59.96517027863778,50.0
3878,53.686145510835914,50.0
3879,59.02670278637771,50.0
3880,56.05166408668732,50.0
3881,55.05514705882352,50.0
3882,60.357004643962846,50.0
3883,56.075851393188856,50.0
3884,58.55263157894737,50.0
3885,58.15595975232199,50.0
3886,57.580301857585134,50.0
3887,61.75503095975232,50.0
3888,53.74419504643963,50.0
3889,59.171826625387,50.0
3890,55.55824303405573,50.0
3891,58.95414086687306,50.0
3892,59.4814241486068,50.0
3893,57.51257739938081,50.0
3894,60.86010061919505,50.0
3895,62.10332817337461,50.0
3896,60.487616099071204,50.0
3897,62.67898606811144,50.0
3898,61.672794117647044,50.0
3899,59.781346749226,50.0
3900,62.13235294117646,50.0
3901,60.990712074303396,50.0
3902,61.10681114551083,50.0
3903,56.83533281733747,50.0
3904,56.177438080495364,50.0
3905,58.94930340557276,50.0
3906,56.119388544891635,50.0
3907,57.76412538699691,50.0
3908,59.76199690402478,50.0
3909,58.46555727554179,50.0
3910,56.699883900928796,50.0
3911,52.83475232198142,50.0
3912,59.22987616099071,50.0
3913,56.056501547987615,50.0
3914,65.2283281733746,50.0
3915,57.827012383900936,50.0
3916,61.33417182662539,50.0
3917,53.30882352941177,50.0
3918,58.57681888544892,50.0
3919,60.34732972136223,50.0
3920,65.05901702786379,50.0
3921,67.28908668730648,50.0
3922,58.15112229102167,50.0
3923,61.663119195046434,50.0
3924,57.49322755417956,50.0
3925,60.79721362229102,50.0
3926,63.607778637770906,50.0
3927,61.04392414860681,50.0
3928,57.14009287925696,50.0
3929,59.84907120743034,50.0
3930,59.69427244582043,50.0
3931,57.90924922600619,50.0
3932,58.712267801857585,50.0
3933,60.35700464396285,50.0
3934,59.31695046439628,50.0
3935,60.274767801857585,50.0
3936,55.732391640866865,50.0
3937,56.791795665634666,50.0
3938,58.4123452012384,50.0
3939,59.38951238390093,50.0
3940,63.59810371517028,50.0
3941,57.87538699690402,50.0
3942,57.014318885448915,50.0
3943,56.5499226006192,50.0
3944,60.274767801857585,50.0
3945,58.53811919504644,50.0
3946,57.72542569659442,50.0
3947,60.34732972136223,50.0
3948,59.375,50.0
3949,55.96942724458204,50.0
3950,59.689434984520126,50.0
3951,57.40615325077398,50.0
3952,55.86784055727554,50.0
3953,58.204334365325074,50.0
3954,55.72755417956657,50.0
3955,56.37093653250774,50.0
3956,59.64589783281734,50.0
3957,58.91544117647059,50.0
3958,55.23413312693498,50.0
3959,60.11996904024768,50.0
3960,58.489744582043336,50.0
3961,56.748258513931894,50.0
3962,61.198722910216716,50.0
3963,60.419891640866865,50.0
3964,57.9140866873065,50.0
3965,60.80688854489164,50.0
3966,64.96226780185759,50.0
3967,56.97561919504644,50.0
3968,56.16292569659443,50.0
3969,56.20162538699691,50.0
3970,60.85526315789474,50.0
3971,56.6515092879257,50.0
3972,60.73432662538701,50.0
3973,56.83049535603715,50.0
3974,59.38951238390093,50.0
3975,59.370162538699695,50.0
3976,60.65692724458205,50.0
3977,57.0530185758514,50.0
3978,60.57469040247679,50.0
3979,55.46149380804953,50.0
3980,58.088235294117645,50.0
3981,55.36474458204335,50.0
3982,59.72329721362229,50.0
3983,56.661184210526315,50.0
3984,58.37848297213622,50.0
3985,62.886996904024755,50.0
3986,60.75367647058823,50.0
3987,54.86164860681115,50.0
3988,57.401315789473685,50.0
3989,59.399187306501545,50.0
3990,56.41931114551084,50.0
3991,54.30050309597524,50.0
3992,62.3548761609907,50.0
3993,62.51934984520124,50.0
3994,60.24574303405572,50.0
3995,53.734520123839,50.0
3996,56.622484520123834,50.0
3997,62.22426470588234,50.0
3998,58.12209752321981,50.0
3999,61.05359907120744,50.0
4000,57.29489164086688,50.0
4001,60.2360681114551,50.0
4002,60.352167182662534,50.0
4003,59.8780959752322,50.0
4004,59.11861455108359,50.0
4005,61.88564241486068,50.0
4006,60.71981424148606,50.0
4007,60.49729102167183,50.0
4008,58.779992260061924,50.0
4009,55.89202786377709,50.0
4010,58.04953560371518,50.0
4011,61.07778637770897,50.0
4012,57.880224458204324,50.0
4013,66.37964396284828,50.0
4014,54.9922600619195,50.0
4015,54.22794117647058,50.0
4016,60.81656346749225,50.0
4017,60.27960526315789,50.0
4018,63.72387770897831,50.0
4019,56.40479876160991,50.0
4020,63.143382352941174,50.0
4021,55.016447368421055,50.0
4022,54.01509287925697,50.0
4023,56.07101393188855,50.0
4024,58.765479876160995,50.0
4025,60.06675696594427,50.0
4026,61.116486068111456,50.0
4027,58.54779411764706,50.0
4028,60.57469040247679,50.0
4029,59.418537151702786,50.0
4030,56.907894736842096,50.0
4031,55.045472136222905,50.0
4032,59.29276315789474,50.0
4033,57.23200464396285,50.0
4034,58.92511609907121,50.0
4035,60.45859133126935,50.0
4036,57.37229102167183,50.0
4037,62.5,50.0
4038,55.20510835913313,50.0
4039,55.10352167182662,50.0
4040,52.75251547987617,50.0
4041,60.99071207430341,50.0
4042,63.02728328173374,50.0
4043,56.453173374613,50.0
4044,62.83378482972136,50.0
4045,55.65015479876161,50.0
4046,52.44775541795666,50.0
4047,58.15595975232197,50.0
4048,61.52767027863777,50.0
4049,60.153831269349844,50.0
4050,58.77515479876161,50.0
4051,58.12693498452012,50.0
4052,61.13099845201238,50.0
4053,57.62867647058823,50.0
4054,59.273413312693506,50.0
4055,58.97349071207431,50.0
4056,59.39434984520123,50.0
4057,57.45936532507739,50.0
4058,58.91544117647058,50.0
4059,58.84771671826626,50.0
4060,62.775735294117645,50.0
4061,60.0328947368421,50.0
4062,59.36048761609908,50.0
4063,52.4719427244582,50.0
4064,56.71923374613003,50.0
4065,58.876741486068106,50.0
4066,57.449690402476776,50.0
4067,61.69698142414862,50.0
4068,57.49322755417956,50.0
4069,53.778057275541805,50.0
4070,61.57120743034055,50.0
4071,65.69272445820435,50.0
4072,55.37925696594427,50.0
4073,61.33417182662539,50.0
4074,59.15731424148607,50.0
4075,63.48200464396285,50.0
4076,52.26393188854489,50.0
4077,61.36803405572756,50.0
4078,59.534636222910216,50.0
4079,60.12480650154799,50.0
4080,57.0530185758514,50.0
4081,56.699883900928796,50.0
4082,54.70201238390092,50.0
4083,62.63544891640866,50.0
4084,59.69910990712074,50.0
4085,59.29276315789474,50.0
4086,60.79237616099071,50.0
4087,53.98606811145511,50.0
4088,60.27960526315789,50.0
4089,58.11242260061919,50.0
4090,57.49806501547988,50.0
4091,58.53328173374613,50.0
4092,54.6391253869969,50.0
4093,54.890673374613016,50.0
4094,59.78134674922601,50.0
4095,61.07778637770897,50.0
4096,58.25754643962848,50.0
4097,55.80979102167182,50.0
4098,57.88989938080495,50.0
4099,60.91815015479876,50.0
4100,58.55263157894736,50.0
4101,59.35565015479876,50.0
4102,59.29276315789473,50.0
4103,56.346749226006196,50.0
4104,58.809017027863774,50.0
4105,62.77089783281734,50.0
4106,57.37712848297214,50.0
4107,55.22929566563467,50.0
4108,60.91815015479875,50.0
4109,63.03695820433436,50.0
4110,58.61551857585139,50.0
4111,61.595394736842096,50.0
4112,60.94233746130032,50.0
4113,60.995549535603715,50.0
4114,62.142027863777095,50.0
4115,63.08533281733745,50.0
4116,61.672794117647044,50.0
4117,58.89125386996904,50.0
4118,53.29431114551083,50.0
4119,62.53869969040249,50.0
4120,56.16292569659443,50.0
4121,61.26160990712075,50.0
4122,56.67569659442725,50.0
4123,56.6031346749226,50.0
4124,57.352941176470594,50.0
4125,50.933630030959755,50.0
4126,58.272058823529406,50.0
4127,56.04198916408669,50.0
4128,59.91195820433437,50.0
4129,64.17859907120744,50.0
4130,63.46749226006191,50.0
4131,65.94427244582045,50.0
4132,56.05166408668731,50.0
4133,57.68672600619195,50.0
4134,58.92511609907121,50.0
4135,56.912732198142415,50.0
4136,59.24438854489164,50.0
4137,59.515286377708975,50.0
4138,58.702592879256976,50.0
4139,55.219620743034056,50.0
4140,61.73568111455109,50.0
4141,57.49322755417957,50.0
4142,60.32314241486068,50.0
4143,57.71575077399381,50.0
4144,51.804373065015476,50.0
4145,59.404024767801864,50.0
4146,62.28715170278639,50.0
4147,56.68537151702787,50.0
4148,61.05359907120743,50.0
4149,59.16215170278638,50.0
4150,59.829721362229115,50.0
4151,56.462848297213625,50.0
4152,60.7391640866873,50.0
4153,58.99767801857584,50.0
4154,58.77031733746129,50.0
4155,61.57604489164087,50.0
4156,56.81114551083593,50.0
4157,63.631965944272466,50.0
4158,59.66041021671827,50.0
4159,58.04953560371517,50.0
4160,60.308630030959755,50.0
4161,58.70743034055728,50.0
4162,59.911958204334375,50.0
4163,57.14493034055728,50.0
4164,56.16776315789474,50.0
4165,55.95975232198142,50.0
4166,60.71013931888545,50.0
4167,67.30843653250773,50.0
4168,59.423374613003105,50.0
4169,61.03424922600619,50.0
4170,52.55417956656347,50.0
4171,56.903057275541805,50.0
4172,61.924342105263165,50.0
4173,56.143575851393194,50.0
4174,59.433049535603715,50.0
4175,63.941563467492244,50.0
4176,61.17453560371517,50.0
4177,56.20646284829722,50.0
4178,60.27960526315789,50.0
4179,61.058436532507734,50.0
4180,56.71923374613003,50.0
4181,58.85255417956656,50.0
4182,56.35642414860681,50.0
4183,57.6625386996904,50.0
4184,60.81172600619196,50.0
4185,59.78618421052631,50.0
4186,56.99496904024768,50.0
4187,60.64725232198142,50.0
4188,53.70065789473684,50.0
4189,55.23413312693498,50.0
4190,58.141447368421055,50.0
4191,60.11996904024768,50.0
4192,59.447561919504636,50.0
4193,58.325270897832816,50.0
4194,61.61474458204333,50.0
4195,60.79721362229102,50.0
4196,57.681888544891635,50.0
4197,58.320433436532504,50.0
4198,60.21671826625387,50.0
4199,59.75232198142414,50.0
4200,61.46478328173375,50.0
4201,57.280379256965944,50.0
4202,56.06133900928793,50.0
4203,55.43730650154799,50.0
4204,60.995549535603715,50.0
4205,57.5609520123839,50.0
4206,56.58862229102167,50.0
4207,60.63273993808049,50.0
4208,62.0984907120743,50.0
4209,57.48839009287926,50.0
4210,59.85390866873064,50.0
4211,60.79237616099071,50.0
4212,64.18827399380805,50.0
4213,56.898219814241486,50.0
4214,60.55534055727554,50.0
4215,54.71652476780186,50.0
4216,58.663893188854495,50.0
4217,60.850425696594435,50.0
4218,60.7875386996904,50.0
4219,57.086880804953566,50.0
4220,53.923181114551085,50.0
4221,54.77941176470589,50.0
4222,61.98722910216717,50.0
4223,58.81385448916409,50.0
4224,58.23819659442725,50.0
4225,59.181501547987615,50.0
4226,57.35777863777089,50.0
4227,60.06191950464397,50.0
4228,53.36203560371517,50.0
4229,63.50135448916408,50.0
4230,58.36880804953561,50.0
4231,62.8531346749226,50.0
4232,55.86300309597523,50.0
4233,59.907120743034056,50.0
4234,58.00599845201239,50.0
4235,58.83320433436533,50.0
4236,60.34732972136223,50.0
4237,64.25116099071207,50.0
4238,59.46207430340558,50.0
4239,57.11106811145511,50.0
4240,60.40054179566564,50.0
4241,61.846942724458195,50.0
4242,57.68188854489165,50.0
4243,58.32527089783281,50.0
4244,56.93691950464397,50.0
4245,63.57875386996904,50.0
4246,62.654798761609904,50.0
4247,60.22155572755418,50.0
4248,59.515286377708975,50.0
4249,58.001160990712066,50.0
4250,53.80224458204334,50.0
4251,61.924342105263165,50.0
4252,58.09307275541796,50.0
4253,59.7281346749226,50.0
4254,58.044698142414866,50.0
4255,56.98045665634675,50.0
4256,52.883126934984524,50.0
4257,58.05437306501549,50.0
4258,57.45452786377708,50.0
4259,57.580301857585134,50.0
4260,61.05843653250775,50.0
4261,58.26722136222911,50.0
4262,63.31753095975232,50.0
4263,62.321013931888544,50.0
4264,60.95684984520124,50.0
4265,56.675696594427244,50.0
4266,58.460719814241486,50.0
4267,62.60642414860681,50.0
4268,59.703947368421055,50.0
4269,56.22581269349845,50.0
4270,59.171826625387,50.0
4271,61.619582043343655,50.0
4272,62.18072755417957,50.0
4273,53.845781733746136,50.0
4274,57.120743034055714,50.0
4275,59.71362229102167,50.0
4276,61.89047987616098,50.0
4277,58.83320433436533,50.0
4278,62.07914086687306,50.0
4279,57.92859907120744,50.0
4280,61.00038699690402,50.0
4281,59.4765866873065,50.0
4282,62.92085913312694,50.0
4283,64.61397058823529,50.0
4284,60.255417956656345,50.0
4285,55.82914086687306,50.0
4286,60.24574303405572,50.0
4287,60.25541795665634,50.0
4288,63.57391640866872,50.0
4289,60.72948916408668,50.0
4290,63.35139318885449,50.0
4291,61.13583591331268,50.0
4292,55.466331269349844,50.0
4293,59.636222910216716,50.0
