sample_id,accuracy,window_size
0,60.82623839009288,200.0
1,61.213235294117645,200.0
2,62.31133900928791,200.0
3,62.69349845201239,200.0
4,61.46478328173375,200.0
5,60.947174922600624,200.0
6,64.20278637770899,200.0
7,60.66660216718266,200.0
8,63.59326625386996,200.0
9,59.46207430340557,200.0
10,64.10119969040247,200.0
11,60.86010061919504,200.0
12,58.03018575851394,200.0
13,57.251354489164086,200.0
14,63.82546439628483,200.0
15,62.87732198142415,200.0
16,60.01354489164086,200.0
17,59.66041021671827,200.0
18,60.55534055727555,200.0
19,61.21807275541795,200.0
20,61.02457430340558,200.0
21,60.226393188854495,200.0
22,57.92859907120743,200.0
23,62.17105263157893,200.0
24,59.336300309597526,200.0
25,60.995549535603715,200.0
26,61.82759287925696,200.0
27,61.34868421052631,200.0
28,58.53811919504644,200.0
29,56.51606037151703,200.0
30,60.207043343653254,200.0
31,60.3860294117647,200.0
32,60.71981424148606,200.0
33,60.434404024767794,200.0
34,58.944465944272444,200.0
35,60.44407894736842,200.0
36,60.613390092879264,200.0
37,59.80069659442725,200.0
38,59.78134674922602,200.0
39,62.98858359133128,200.0
40,59.96517027863777,200.0
41,61.28579721362229,200.0
42,60.971362229102155,200.0
43,61.140673374613,200.0
44,63.3659055727554,200.0
45,62.171052631578945,200.0
46,65.32991486068109,200.0
47,59.20568885448917,200.0
48,61.28095975232197,200.0
49,58.79450464396285,200.0
50,60.51664086687306,200.0
51,60.531153250774,200.0
52,59.49593653250775,200.0
53,60.05224458204333,200.0
54,63.20626934984519,200.0
55,59.78134674922601,200.0
56,63.820626934984524,200.0
57,61.42608359133128,200.0
58,64.03347523219816,200.0
59,63.9173761609907,200.0
60,60.337654798761605,200.0
61,60.56017801857585,200.0
62,61.232585139318886,200.0
63,62.24845201238389,200.0
64,61.18421052631578,200.0
65,61.52283281733745,200.0
66,62.016253869969034,200.0
67,62.5483746130031,200.0
68,63.486842105263165,200.0
69,60.3328173374613,200.0
70,59.341137770897824,200.0
71,57.3577786377709,200.0
72,60.74883900928791,200.0
73,58.25754643962848,200.0
74,63.0079334365325,200.0
75,63.104682662538686,200.0
76,59.61203560371518,200.0
77,59.44756191950465,200.0
78,60.21671826625388,200.0
79,59.34113777089783,200.0
80,61.76954334365325,200.0
81,60.99071207430341,200.0
82,59.97484520123839,200.0
83,60.62306501547988,200.0
84,62.83862229102168,200.0
85,62.42743808049537,200.0
86,58.528444272445824,200.0
87,56.656346749226,200.0
88,59.37016253869969,200.0
89,64.16892414860682,200.0
90,62.1468653250774,200.0
91,59.78618421052632,200.0
92,59.07507739938082,200.0
93,62.321013931888544,200.0
94,60.91815015479876,200.0
95,62.59674922600619,200.0
96,61.851780185758514,200.0
97,67.2890866873065,200.0
98,59.868421052631575,200.0
99,59.64589783281734,200.0
100,61.79856811145511,200.0
101,59.500773993808046,200.0
102,65.60081269349843,200.0
103,62.49516253869968,200.0
104,60.023219814241486,200.0
105,61.75503095975232,200.0
106,63.85448916408668,200.0
107,62.32585139318885,200.0
108,65.97329721362229,200.0
109,61.12616099071207,200.0
110,58.85739164086687,200.0
111,60.55050309597523,200.0
112,61.29547213622292,200.0
113,60.81656346749225,200.0
114,57.246517027863774,200.0
115,59.43788699690403,200.0
116,57.914086687306494,200.0
117,60.337654798761605,200.0
118,59.14280185758514,200.0
119,58.29140866873065,200.0
120,60.84075077399381,200.0
121,59.46691176470589,200.0
122,60.371517027863774,200.0
123,62.5,200.0
124,60.086106811145505,200.0
125,61.80824303405572,200.0
126,58.015673374612994,200.0
127,57.24167956656346,200.0
128,62.33552631578947,200.0
129,58.44620743034055,200.0
130,60.705301857585134,200.0
131,65.14125386996903,200.0
132,58.963815789473685,200.0
133,63.81095201238389,200.0
134,62.34036377708978,200.0
135,63.77225232198142,200.0
136,59.06056501547988,200.0
137,62.093653250774,200.0
138,60.008707430340564,200.0
139,63.40944272445821,200.0
140,62.146865325077385,200.0
141,55.46149380804953,200.0
142,64.48819659442724,200.0
143,61.76954334365326,200.0
144,64.3188854489164,200.0
145,59.83455882352939,200.0
146,62.13235294117646,200.0
147,57.077205882352935,200.0
148,63.36106811145511,200.0
149,61.871130030959755,200.0
150,64.71555727554178,200.0
151,59.200851393188856,200.0
152,63.25948142414862,200.0
153,62.68382352941177,200.0
154,60.88428792569659,200.0
155,59.01219040247677,200.0
156,61.12616099071207,200.0
157,58.48490712074304,200.0
158,63.28366873065016,200.0
159,65.17511609907122,200.0
160,63.42879256965945,200.0
161,64.64783281733747,200.0
162,58.69775541795665,200.0
163,64.73490712074305,200.0
164,62.69349845201239,200.0
165,58.95897832817337,200.0
166,62.3935758513932,200.0
167,62.67414860681114,200.0
168,58.49941950464396,200.0
169,64.01896284829722,200.0
170,58.39299535603715,200.0
171,59.64589783281733,200.0
172,67.75348297213621,200.0
173,62.95472136222911,200.0
174,64.86068111455108,200.0
175,63.87383900928793,200.0
176,60.99071207430341,200.0
177,58.90576625386997,200.0
178,64.468846749226,200.0
179,59.51044891640867,200.0
180,57.841524767801864,200.0
181,56.477360681114554,200.0
182,64.20278637770899,200.0
183,60.51180340557274,200.0
184,60.323142414860676,200.0
185,66.48606811145513,200.0
186,62.26780185758512,200.0
187,61.96304179566565,200.0
188,57.84152476780188,200.0
189,65.45568885448917,200.0
190,60.294117647058826,200.0
191,66.73277863777089,200.0
192,65.43150154798762,200.0
193,61.08262383900929,200.0
194,61.039086687306494,200.0
195,61.96304179566564,200.0
196,66.77631578947368,200.0
197,60.511803405572756,200.0
198,61.91950464396285,200.0
199,59.62654798761611,200.0
200,57.7641253869969,200.0
201,61.329334365325074,200.0
202,59.3217879256966,200.0
203,63.90286377708979,200.0
204,61.10681114551083,200.0
205,61.4938080495356,200.0
206,65.05417956656346,200.0
207,63.92221362229102,200.0
208,56.98529411764706,200.0
209,59.0702399380805,200.0
210,60.24574303405571,200.0
211,62.093653250774,200.0
212,64.63332043343654,200.0
213,59.38951238390092,200.0
214,62.17105263157896,200.0
215,62.16137770897832,200.0
216,65.6153250773994,200.0
217,66.15712074303406,200.0
218,62.27747678018576,200.0
219,60.84075077399381,200.0
220,63.452979876160995,200.0
221,61.18904798761611,200.0
222,57.29005417956656,200.0
223,59.41853715170278,200.0
224,59.215363777089784,200.0
225,58.42685758513932,200.0
226,59.24438854489164,200.0
227,59.94582043343653,200.0
228,64.44949690402477,200.0
229,63.109520123839005,200.0
230,63.65131578947368,200.0
231,64.98161764705883,200.0
232,63.33688080495355,200.0
233,61.28095975232197,200.0
234,61.687306501547994,200.0
235,62.6112616099071,200.0
236,63.42395510835913,200.0
237,61.276122291021665,200.0
238,61.16486068111455,200.0
239,60.76335139318886,200.0
240,63.82546439628483,200.0
241,61.16486068111456,200.0
242,64.32856037151703,200.0
243,64.82681888544892,200.0
244,65.09287925696596,200.0
245,64.4591718266254,200.0
246,61.72116873065015,200.0
247,59.02670278637771,200.0
248,63.51586687306502,200.0
249,61.590557275541805,200.0
250,58.94930340557275,200.0
251,62.60158668730651,200.0
252,60.221555727554176,200.0
253,60.90363777089783,200.0
254,63.58359133126935,200.0
255,63.92705108359132,200.0
256,62.20975232198143,200.0
257,60.56017801857586,200.0
258,61.469620743034056,200.0
259,61.06327399380805,200.0
260,60.976199690402474,200.0
261,62.441950464396285,200.0
262,61.90499226006191,200.0
263,60.71013931888544,200.0
264,60.48277863777089,200.0
265,60.46342879256967,200.0
266,64.55592105263159,200.0
267,63.095007739938076,200.0
268,60.511803405572756,200.0
269,60.1344814241486,200.0
270,62.37906346749225,200.0
271,61.208397832817326,200.0
272,62.437113003095966,200.0
273,61.484133126934985,200.0
274,62.91602167182663,200.0
275,63.941563467492266,200.0
276,64.44465944272444,200.0
277,61.07778637770897,200.0
278,59.66524767801858,200.0
279,65.18479102167183,200.0
280,65.14125386996903,200.0
281,62.46613777089783,200.0
282,60.85042569659442,200.0
283,62.9015092879257,200.0
284,60.97136222910217,200.0
285,68.50812693498449,200.0
286,60.308630030959755,200.0
287,59.89744582043344,200.0
288,57.130417956656345,200.0
289,62.0984907120743,200.0
290,63.419117647058826,200.0
291,62.200077399380795,200.0
292,58.020510835913306,200.0
293,61.37287151702787,200.0
294,61.02941176470587,200.0
295,64.49787151702786,200.0
296,62.66447368421053,200.0
297,63.511029411764696,200.0
298,62.71768575851394,200.0
299,64.76393188854489,200.0
300,61.71149380804953,200.0
301,63.60294117647059,200.0
302,55.6985294117647,200.0
303,63.02244582043345,200.0
304,63.409442724458195,200.0
305,63.312693498452035,200.0
306,58.64938080495355,200.0
307,60.298955108359145,200.0
308,58.87674148606812,200.0
309,63.801277089783284,200.0
310,61.95820433436532,200.0
311,61.561532507739926,200.0
312,57.164280185758514,200.0
313,62.84829721362229,200.0
314,61.93885448916408,200.0
315,63.380417956656345,200.0
316,61.04876160990712,200.0
317,62.872484520123834,200.0
318,61.59539473684211,200.0
319,55.81946594427246,200.0
320,59.229876160990706,200.0
321,57.386803405572756,200.0
322,58.934791021671835,200.0
323,60.41021671826625,200.0
324,63.20626934984521,200.0
325,61.71633126934984,200.0
326,62.703173374613,200.0
327,60.60371517027864,200.0
328,60.21188080495355,200.0
329,58.25270897832817,200.0
330,62.32585139318885,200.0
331,62.683823529411754,200.0
332,58.98800309597523,200.0
333,63.02728328173375,200.0
334,59.63138544891641,200.0
335,59.40886222910216,200.0
336,65.94427244582043,200.0
337,61.222910216718276,200.0
338,62.717685758513944,200.0
339,61.49864551083591,200.0
340,61.45994582043343,200.0
341,61.83726780185757,200.0
342,60.395704334365334,200.0
343,64.82681888544892,200.0
344,61.35835913312694,200.0
345,61.21807275541795,200.0
346,57.67705108359133,200.0
347,59.39434984520125,200.0
348,60.10061919504644,200.0
349,65.08804179566563,200.0
350,59.970007739938076,200.0
351,62.42743808049536,200.0
352,62.180727554179555,200.0
353,61.522832817337466,200.0
354,60.845588235294116,200.0
355,62.47581269349844,200.0
356,61.51799535603715,200.0
357,65.76528637770899,200.0
358,66.30224458204334,200.0
359,60.83107585139319,200.0
360,61.02941176470587,200.0
361,62.746710526315795,200.0
362,61.40189628482972,200.0
363,62.529024767801864,200.0
364,59.316950464396285,200.0
365,63.312693498452006,200.0
366,60.289280185758514,200.0
367,59.35565015479876,200.0
368,64.85584365325079,200.0
369,61.44543343653251,200.0
370,61.029411764705884,200.0
371,62.79024767801858,200.0
372,60.608552631578945,200.0
373,58.591331269349844,200.0
374,61.9920665634675,200.0
375,61.05843653250775,200.0
376,62.267801857585134,200.0
377,59.089589783281724,200.0
378,61.82275541795666,200.0
379,63.612616099071204,200.0
380,64.47852167182663,200.0
381,63.65615325077398,200.0
382,63.57391640866875,200.0
383,63.96091331269349,200.0
384,63.3078560371517,200.0
385,60.115131578947356,200.0
386,59.86358359133127,200.0
387,60.405379256965944,200.0
388,61.64860681114551,200.0
389,58.68324303405573,200.0
390,61.880804953560364,200.0
391,56.30321207430341,200.0
392,64.49303405572755,200.0
393,62.238777089783284,200.0
394,61.280959752321984,200.0
395,61.11164860681115,200.0
396,61.07778637770898,200.0
397,62.21942724458205,200.0
398,61.551857585139324,200.0
399,59.6797600619195,200.0
400,67.57933436532505,200.0
401,64.13022445820434,200.0
402,63.32236842105262,200.0
403,59.263738390092875,200.0
404,59.25406346749226,200.0
405,57.58997678018576,200.0
406,61.61474458204333,200.0
407,64.50270897832816,200.0
408,64.99613003095976,200.0
409,58.85255417956656,200.0
410,66.17163312693498,200.0
411,61.856617647058826,200.0
412,61.22291021671826,200.0
413,62.89183436532509,200.0
414,64.37209752321984,200.0
415,64.70588235294119,200.0
416,66.41350619195045,200.0
417,58.857391640866865,200.0
418,59.36048761609908,200.0
419,61.517995356037154,200.0
420,60.28444272445821,200.0
421,66.2828947368421,200.0
422,62.08881578947368,200.0
423,62.16137770897832,200.0
424,64.73974458204334,200.0
425,61.82759287925696,200.0
426,61.750193498452006,200.0
427,63.58842879256966,200.0
428,64.19794891640866,200.0
429,63.79160216718266,200.0
430,65.54276315789474,200.0
431,64.40595975232199,200.0
432,59.81037151702787,200.0
433,62.538699690402474,200.0
434,60.99554953560373,200.0
435,61.208397832817326,200.0
436,58.7219427244582,200.0
437,61.44059597523219,200.0
438,59.20568885448917,200.0
439,61.82275541795666,200.0
440,61.3390092879257,200.0
441,58.562306501547994,200.0
442,63.55456656346749,200.0
443,61.14551083591332,200.0
444,62.0984907120743,200.0
445,67.00851393188854,200.0
446,64.43498452012382,200.0
447,62.233939628482965,200.0
448,57.02399380804954,200.0
449,57.21749226006191,200.0
450,59.22503869969041,200.0
451,60.734326625387,200.0
452,62.82894736842107,200.0
453,64.35274767801857,200.0
454,66.61184210526316,200.0
455,63.57391640866872,200.0
456,61.03908668730651,200.0
457,61.145510835913306,200.0
458,61.179373065015476,200.0
459,59.81037151702785,200.0
460,60.41989164086687,200.0
461,65.01064241486068,200.0
462,60.42956656346749,200.0
463,63.16756965944272,200.0
464,58.68808049535603,200.0
465,63.549729102167184,200.0
466,61.47929566563468,200.0
467,60.48277863777089,200.0
468,59.96033281733746,200.0
469,63.27883126934985,200.0
470,61.493808049535616,200.0
471,63.26431888544892,200.0
472,62.33552631578946,200.0
473,64.12538699690403,200.0
474,63.35139318885447,200.0
475,60.47794117647059,200.0
476,64.88970588235296,200.0
477,57.51257739938081,200.0
478,61.99690402476781,200.0
479,60.5892027863777,200.0
480,63.3030185758514,200.0
481,61.745356037151716,200.0
482,61.74051857585138,200.0
483,59.52012383900928,200.0
484,66.0845588235294,200.0
485,66.577979876161,200.0
486,65.46536377708978,200.0
487,62.58707430340558,200.0
488,61.561532507739926,200.0
489,61.7405185758514,200.0
490,59.43788699690403,200.0
491,58.53811919504644,200.0
492,60.400541795665625,200.0
493,64.01896284829722,200.0
494,61.16002321981424,200.0
495,62.24361455108359,200.0
496,62.07914086687306,200.0
497,60.613390092879264,200.0
498,59.723297213622295,200.0
499,62.3500386996904,200.0
500,62.75154798761611,200.0
501,61.87596749226006,200.0
502,62.55321207430341,200.0
503,61.01006191950464,200.0
504,61.17453560371517,200.0
505,61.39705882352941,200.0
506,58.7171052631579,200.0
507,61.65344427244583,200.0
508,59.76683436532508,200.0
509,57.328753869969034,200.0
510,64.13022445820435,200.0
511,62.00657894736842,200.0
512,62.00657894736842,200.0
513,57.52708978328173,200.0
514,62.64512383900929,200.0
515,57.98664860681115,200.0
516,59.87809597523219,200.0
517,57.754450464396285,200.0
518,59.800696594427244,200.0
519,63.051470588235304,200.0
520,60.76818885448917,200.0
521,59.92647058823529,200.0
522,61.42124613003096,200.0
523,62.17589009287925,200.0
524,60.729489164086694,200.0
525,67.12945046439627,200.0
526,61.01973684210527,200.0
527,63.20626934984519,200.0
528,61.866292569659436,200.0
529,60.37635448916408,200.0
530,60.240905572755416,200.0
531,60.366679566563455,200.0
532,57.33359133126935,200.0
533,59.3266253869969,200.0
534,59.113777089783284,200.0
535,56.733746130030966,200.0
536,60.90363777089783,200.0
537,63.65131578947369,200.0
538,61.532507739938076,200.0
539,62.53386222910217,200.0
540,60.627902476780186,200.0
541,63.849651702786396,200.0
542,63.73839009287925,200.0
543,59.91679566563467,200.0
544,62.99342105263157,200.0
545,62.296826625387,200.0
546,61.04392414860681,200.0
547,61.4938080495356,200.0
548,61.36803405572755,200.0
549,63.51586687306502,200.0
550,64.46884674922602,200.0
551,63.157894736842096,200.0
552,64.09152476780186,200.0
553,60.734326625387,200.0
554,61.469620743034056,200.0
555,62.51934984520124,200.0
556,59.21052631578948,200.0
557,64.72523219814241,200.0
558,61.4357585139319,200.0
559,64.04315015479875,200.0
560,62.60158668730651,200.0
561,63.33204334365326,200.0
562,64.1640866873065,200.0
563,61.77921826625387,200.0
564,61.64376934984519,200.0
565,62.974071207430356,200.0
566,59.91195820433437,200.0
567,60.927825077399376,200.0
568,61.92434210526315,200.0
569,61.25193498452012,200.0
570,64.83649380804954,200.0
571,61.73084365325076,200.0
572,60.81656346749225,200.0
573,63.82546439628484,200.0
574,61.634094427244584,200.0
575,65.01064241486068,200.0
576,61.84694272445821,200.0
577,64.47368421052634,200.0
578,58.24787151702787,200.0
579,62.83862229102168,200.0
580,64.38177244582045,200.0
581,61.00038699690402,200.0
582,66.0845588235294,200.0
583,62.16621517027864,200.0
584,62.13235294117647,200.0
585,62.050116099071204,200.0
586,59.23955108359134,200.0
587,63.051470588235304,200.0
588,67.41002321981424,200.0
589,62.63061145510837,200.0
590,59.084752321981426,200.0
591,64.1640866873065,200.0
592,59.766834365325074,200.0
593,56.35642414860681,200.0
594,60.96652476780185,200.0
595,63.42395510835913,200.0
596,61.06327399380804,200.0
597,60.695626934984524,200.0
598,60.86010061919505,200.0
599,60.04740712074303,200.0
600,57.53192724458204,200.0
601,59.29276315789473,200.0
602,59.63138544891641,200.0
603,61.663119195046434,200.0
604,58.48974458204334,200.0
605,61.66795665634675,200.0
606,56.003289473684205,200.0
607,60.1780185758514,200.0
608,61.7453560371517,200.0
609,59.06056501547988,200.0
610,60.41505417956655,200.0
611,62.36938854489164,200.0
612,64.73490712074303,200.0
613,61.817917956656345,200.0
614,60.5843653250774,200.0
615,62.432275541795676,200.0
616,61.27128482972136,200.0
617,58.73645510835913,200.0
618,63.182082043343655,200.0
619,61.580882352941174,200.0
620,57.79798761609908,200.0
621,57.164280185758514,200.0
622,63.64164086687305,200.0
623,58.20433436532508,200.0
624,58.35429566563468,200.0
625,63.82062693498451,200.0
626,60.908475232198136,200.0
627,61.12616099071207,200.0
628,60.04256965944272,200.0
629,63.45297987616098,200.0
630,67.65673374613003,200.0
631,59.989357585139324,200.0
632,57.406153250774,200.0
633,62.142027863777066,200.0
634,58.291408668730654,200.0
635,65.03482972136223,200.0
636,63.5061919504644,200.0
637,59.99903250773994,200.0
638,60.424729102167184,200.0
639,60.39086687306502,200.0
640,60.158668730650156,200.0
641,61.595394736842096,200.0
642,60.17318111455108,200.0
643,60.52147832817338,200.0
644,60.19736842105263,200.0
645,65.65402476780186,200.0
646,61.856617647058826,200.0
647,61.4938080495356,200.0
648,63.06598297213621,200.0
649,57.96729876160991,200.0
650,59.650735294117645,200.0
651,60.516640866873075,200.0
652,63.00793343653251,200.0
653,59.568498452012385,200.0
654,65.40247678018575,200.0
655,59.07507739938081,200.0
656,60.03773219814242,200.0
657,61.67763157894738,200.0
658,69.40789473684211,200.0
659,62.20007739938081,200.0
660,58.64454334365325,200.0
661,56.90789473684211,200.0
662,60.531153250774,200.0
663,61.34868421052631,200.0
664,63.61261609907121,200.0
665,63.80611455108359,200.0
666,59.23955108359134,200.0
667,63.55456656346749,200.0
668,61.28095975232197,200.0
669,54.76489938080495,200.0
670,59.665247678018574,200.0
671,59.0750773993808,200.0
672,63.743227554179555,200.0
673,58.26238390092879,200.0
674,63.43846749226006,200.0
675,62.05979102167183,200.0
676,55.045472136222905,200.0
677,64.73974458204334,200.0
678,58.96865325077399,200.0
679,64.94291795665634,200.0
680,63.249806501547994,200.0
681,62.408088235294116,200.0
682,62.42743808049534,200.0
683,62.253289473684205,200.0
684,61.537345201238395,200.0
685,58.189821981424146,200.0
686,61.784055727554176,200.0
687,58.93479102167182,200.0
688,61.329334365325074,200.0
689,62.13235294117647,200.0
690,64.7736068111455,200.0
691,61.0874613003096,200.0
692,60.98103715170278,200.0
693,61.6969814241486,200.0
694,61.7888931888545,200.0
695,62.137190402476776,200.0
696,64.81714396284832,200.0
697,59.11861455108359,200.0
698,59.46207430340557,200.0
699,63.64647832817337,200.0
700,62.809597523219814,200.0
701,62.10332817337461,200.0
702,61.79856811145511,200.0
703,58.83804179566563,200.0
704,63.93672600619195,200.0
705,59.32662538699691,200.0
706,63.89802631578949,200.0
707,61.556695046439636,200.0
708,63.694852941176485,200.0
709,63.01760835913313,200.0
710,64.25116099071207,200.0
711,63.42879256965945,200.0
712,59.74748452012383,200.0
713,59.26857585139319,200.0
714,62.60642414860681,200.0
715,59.732972136222905,200.0
716,61.600232198142415,200.0
717,63.215944272445824,200.0
718,56.22581269349845,200.0
719,61.23742260061919,200.0
720,60.14415634674923,200.0
721,60.047407120743046,200.0
722,62.38390092879257,200.0
723,60.913312693498455,200.0
724,60.58920278637771,200.0
725,61.0439241486068,200.0
726,60.0280572755418,200.0
727,59.86358359133128,200.0
728,57.15460526315789,200.0
729,61.295472136222905,200.0
730,62.61609907120743,200.0
731,59.26373839009287,200.0
732,62.64512383900929,200.0
733,61.37287151702787,200.0
734,60.995549535603715,200.0
735,61.41157120743034,200.0
736,58.99284055727554,200.0
737,62.69349845201239,200.0
738,60.56017801857585,200.0
739,62.38390092879257,200.0
740,59.950657894736835,200.0
741,60.35700464396285,200.0
742,59.31211300309598,200.0
743,61.450270897832816,200.0
744,62.291989164086694,200.0
745,57.83184984520124,200.0
746,61.116486068111456,200.0
747,60.70530185758515,200.0
748,61.34384674922602,200.0
749,59.55882352941177,200.0
750,65.13641640866872,200.0
751,61.13099845201238,200.0
752,56.72890866873065,200.0
753,60.37635448916408,200.0
754,59.77650928792569,200.0
755,65.79431114551083,200.0
756,61.26160990712075,200.0
757,58.06404798761609,200.0
758,62.00657894736843,200.0
759,64.09152476780186,200.0
760,58.509094427244584,200.0
761,57.61900154798761,200.0
762,59.35565015479875,200.0
763,61.70665634674923,200.0
764,63.9125386996904,200.0
765,62.24361455108359,200.0
766,59.05089009287925,200.0
767,65.90073529411767,200.0
768,65.07352941176471,200.0
769,57.20781733746129,200.0
770,59.68943498452012,200.0
771,61.39705882352943,200.0
772,57.82701238390092,200.0
773,61.45510835913313,200.0
774,60.265092879256976,200.0
775,61.7453560371517,200.0
776,62.98858359133128,200.0
777,65.79914860681116,200.0
778,60.05224458204334,200.0
779,57.69640092879256,200.0
780,55.65982972136223,200.0
781,56.54024767801858,200.0
782,61.0874613003096,200.0
783,62.601586687306494,200.0
784,64.0721749226006,200.0
785,65.97329721362227,200.0
786,62.906346749226,200.0
787,62.437113003095966,200.0
788,58.79450464396285,200.0
789,60.49729102167183,200.0
790,64.96226780185758,200.0
791,62.03560371517028,200.0
792,62.3016640866873,200.0
793,65.0686919504644,200.0
794,61.39222136222911,200.0
795,65.7314241486068,200.0
796,60.60371517027864,200.0
797,60.782701238390096,200.0
798,63.032120743034056,200.0
799,65.17511609907122,200.0
800,61.67279411764707,200.0
801,64.05282507739938,200.0
802,58.233359133126925,200.0
803,60.78270123839008,200.0
804,58.678405572755416,200.0
805,59.55882352941177,200.0
806,62.0017414860681,200.0
807,60.9375,200.0
808,59.970007739938076,200.0
809,58.286571207430335,200.0
810,65.62983746130031,200.0
811,63.67550309597523,200.0
812,63.52554179566564,200.0
813,61.914667182662534,200.0
814,64.1640866873065,200.0
815,61.851780185758514,200.0
816,63.06114551083591,200.0
817,64.16892414860682,200.0
818,62.964396284829704,200.0
819,57.899574303405565,200.0
820,61.79373065015479,200.0
821,61.44059597523219,200.0
822,58.088235294117645,200.0
823,60.26025541795666,200.0
824,61.856617647058826,200.0
825,59.887770897832816,200.0
826,62.809597523219814,200.0
827,59.50561145510836,200.0
828,58.81869195046439,200.0
829,61.517995356037154,200.0
830,61.595394736842096,200.0
831,60.67143962848298,200.0
832,62.3548761609907,200.0
833,56.45801083591331,200.0
834,59.25890092879257,200.0
835,62.31133900928793,200.0
836,60.695626934984524,200.0
837,62.1468653250774,200.0
838,61.276122291021665,200.0
839,60.24574303405572,200.0
840,62.20975232198142,200.0
841,62.093653250774,200.0
842,65.38796439628484,200.0
843,62.48548761609907,200.0
844,60.816563467492266,200.0
845,61.996904024767794,200.0
846,56.73858359133128,200.0
847,60.1780185758514,200.0
848,59.49593653250774,200.0
849,64.7687693498452,200.0
850,64.89454334365324,200.0
851,66.36029411764707,200.0
852,66.2732198142415,200.0
853,57.8657120743034,200.0
854,60.545665634674926,200.0
855,59.060565015479874,200.0
856,65.44117647058822,200.0
857,60.85042569659442,200.0
858,58.75580495356037,200.0
859,61.75019349845202,200.0
860,62.799922600619205,200.0
861,57.062693498452006,200.0
862,61.5421826625387,200.0
863,66.0700464396285,200.0
864,63.33204334365325,200.0
865,65.54760061919505,200.0
866,60.45375386996904,200.0
867,56.73374613003096,200.0
868,58.80901702786378,200.0
869,58.460719814241486,200.0
870,57.74961300309598,200.0
871,63.336880804953566,200.0
872,62.379063467492266,200.0
873,58.460719814241486,200.0
874,58.34462074303405,200.0
875,60.47310371517028,200.0
876,62.949883900928796,200.0
877,59.641060371517014,200.0
878,60.269930340557266,200.0
879,59.81520897832817,200.0
880,61.82275541795666,200.0
881,66.53928018575851,200.0
882,67.25038699690401,200.0
883,63.57391640866872,200.0
884,59.58784829721362,200.0
885,63.94640092879256,200.0
886,60.91815015479876,200.0
887,63.29818111455108,200.0
888,63.29334365325077,200.0
889,61.198722910216716,200.0
890,64.24632352941178,200.0
891,58.562306501547994,200.0
892,62.24845201238389,200.0
893,63.365905572755416,200.0
894,62.27747678018576,200.0
895,62.82410990712075,200.0
896,63.82546439628483,200.0
897,66.4812306501548,200.0
898,60.50696594427245,200.0
899,60.603715170278626,200.0
900,64.37209752321981,200.0
901,62.56772445820434,200.0
902,56.308049535603715,200.0
903,59.176664086687296,200.0
904,64.87519349845199,200.0
905,59.31211300309597,200.0
906,61.10681114551083,200.0
907,61.09713622291021,200.0
908,63.27399380804953,200.0
909,64.96226780185759,200.0
910,63.54005417956655,200.0
911,63.72387770897832,200.0
912,61.38254643962848,200.0
913,59.40886222910216,200.0
914,60.3811919504644,200.0
915,61.75986842105264,200.0
916,60.72948916408668,200.0
917,67.61319659442724,200.0
918,65.30089009287926,200.0
919,63.907701238390096,200.0
920,63.370743034055735,200.0
921,62.92085913312694,200.0
922,61.590557275541805,200.0
923,61.82759287925696,200.0
924,57.93343653250774,200.0
925,63.786764705882355,200.0
926,63.9560758513932,200.0
927,60.66660216718266,200.0
928,62.71284829721361,200.0
929,57.972136222910216,200.0
930,63.02244582043343,200.0
931,57.246517027863774,200.0
932,61.82759287925696,200.0
933,59.20568885448917,200.0
934,65.68788699690403,200.0
935,63.312693498452006,200.0
936,61.808243034055735,200.0
937,60.89396284829722,200.0
938,60.55050309597523,200.0
939,64.11087461300309,200.0
940,57.701238390092875,200.0
941,57.42550309597523,200.0
942,58.88641640866872,200.0
943,59.27341331269349,200.0
944,62.84829721362228,200.0
945,65.59597523219814,200.0
946,60.88428792569659,200.0
947,61.37287151702785,200.0
948,56.40963622291021,200.0
949,64.91873065015479,200.0
950,61.80824303405572,200.0
951,61.885642414860676,200.0
952,59.665247678018574,200.0
953,58.41718266253871,200.0
954,60.995549535603715,200.0
955,64.32372291021673,200.0
956,56.03715170278638,200.0
957,60.68595201238389,200.0
958,67.65673374613003,200.0
959,61.25193498452012,200.0
960,61.20839783281734,200.0
961,62.45646284829721,200.0
962,59.384674922600624,200.0
963,61.65344427244583,200.0
964,64.27534829721363,200.0
965,63.50135448916408,200.0
966,60.003869969040245,200.0
967,64.6623452012384,200.0
968,61.59539473684211,200.0
969,61.784055727554176,200.0
970,59.22020123839009,200.0
971,62.73703560371517,200.0
972,62.0984907120743,200.0
973,63.81095201238391,200.0
974,60.3860294117647,200.0
975,60.55050309597523,200.0
976,59.48142414860681,200.0
977,60.43924148606811,200.0
978,60.32314241486068,200.0
979,60.2263931888545,200.0
980,61.60990712074304,200.0
981,59.370162538699695,200.0
982,62.40325077399381,200.0
983,60.75367647058823,200.0
984,64.80263157894736,200.0
985,62.47581269349844,200.0
986,61.76954334365323,200.0
987,63.44330495356038,200.0
988,62.38390092879257,200.0
989,60.46342879256966,200.0
990,60.608552631578945,200.0
991,60.01838235294117,200.0
992,62.074303405572756,200.0
993,63.17724458204334,200.0
994,59.04605263157894,200.0
995,63.98510061919505,200.0
996,58.68808049535604,200.0
997,60.874613003095966,200.0
998,62.56288699690402,200.0
999,65.08320433436535,200.0
1000,62.277476780185744,200.0
1001,63.11919504643964,200.0
1002,65.44601393188854,200.0
1003,63.433630030959755,200.0
1004,64.63815789473684,200.0
1005,60.28928018575851,200.0
1006,61.42124613003096,200.0
1007,58.799342105263165,200.0
1008,66.41350619195047,200.0
1009,61.15034829721361,200.0
1010,60.03289473684211,200.0
1011,63.51586687306502,200.0
1012,59.46691176470589,200.0
1013,60.086106811145505,200.0
1014,65.9781346749226,200.0
1015,59.33630030959752,200.0
1016,61.68730650154798,200.0
1017,62.48065015479876,200.0
1018,58.63486842105264,200.0
1019,63.29334365325076,200.0
1020,61.503482972136226,200.0
1021,62.35971362229102,200.0
1022,57.449690402476776,200.0
1023,60.45859133126935,200.0
1024,60.961687306501545,200.0
1025,62.97407120743034,200.0
1026,63.83030185758515,200.0
1027,64.3140479876161,200.0
1028,60.77302631578947,200.0
1029,67.31811145510835,200.0
1030,61.764705882352956,200.0
1031,60.76335139318886,200.0
1032,63.34655572755419,200.0
1033,65.33958978328174,200.0
1034,62.79992260061919,200.0
1035,62.954721362229094,200.0
1036,62.3887383900929,200.0
1037,60.729489164086694,200.0
1038,59.39918730650155,200.0
1039,59.181501547987615,200.0
1040,59.20085139318886,200.0
1041,65.43150154798761,200.0
1042,59.597523219814235,200.0
1043,58.620356037151694,200.0
1044,61.764705882352956,200.0
1045,60.88428792569659,200.0
1046,60.279605263157904,200.0
1047,62.954721362229094,200.0
1048,62.20007739938081,200.0
1049,62.558049535603715,200.0
1050,61.653444272445824,200.0
1051,62.73703560371517,200.0
1052,60.52147832817337,200.0
1053,62.91118421052631,200.0
1054,59.24438854489164,200.0
1055,65.35893962848297,200.0
1056,58.73645510835914,200.0
1057,65.77979876160991,200.0
1058,60.932662538699695,200.0
1059,62.62093653250775,200.0
1060,58.67356811145511,200.0
1061,62.10332817337461,200.0
1062,61.07778637770898,200.0
1063,62.72252321981424,200.0
1064,63.225619195046434,200.0
1065,58.60100619195047,200.0
1066,65.0203173374613,200.0
1067,60.04740712074303,200.0
1068,63.2546439628483,200.0
1069,62.39357585139319,200.0
1070,58.02051083591331,200.0
1071,62.91602167182663,200.0
1072,61.4889705882353,200.0
1073,60.34249226006191,200.0
1074,62.137190402476776,200.0
1075,60.59887770897832,200.0
1076,60.908475232198136,200.0
1077,59.89744582043343,200.0
1078,64.75909442724458,200.0
1079,60.41505417956657,200.0
1080,62.35487616099071,200.0
1081,62.52418730650156,200.0
1082,62.42260061919505,200.0
1083,62.65963622291022,200.0
1084,63.68034055727554,200.0
1085,66.44736842105262,200.0
1086,59.5249613003096,200.0
1087,58.2140092879257,200.0
1088,64.72523219814241,200.0
1089,61.43575851393189,200.0
1090,62.71768575851394,200.0
1091,61.4889705882353,200.0
1092,64.61397058823529,200.0
1093,63.16756965944272,200.0
1094,58.833204334365334,200.0
1095,61.27128482972136,200.0
1096,61.23258513931887,200.0
1097,60.240905572755416,200.0
1098,59.19117647058823,200.0
1099,61.01973684210527,200.0
1100,56.2983746130031,200.0
1101,61.09229876160992,200.0
1102,62.204914860681114,200.0
1103,61.17453560371517,200.0
1104,61.30514705882353,200.0
1105,63.61745356037152,200.0
1106,63.191756965944265,200.0
1107,57.851199690402474,200.0
1108,61.09713622291021,200.0
1109,64.27534829721363,200.0
1110,62.3935758513932,200.0
1111,60.245743034055735,200.0
1112,59.752321981424146,200.0
1113,61.580882352941174,200.0
1114,60.613390092879264,200.0
1115,60.71497678018576,200.0
1116,64.6188080495356,200.0
1117,57.082043343653254,200.0
1118,61.8953173374613,200.0
1119,60.37635448916409,200.0
1120,58.41234520123839,200.0
1121,61.73568111455108,200.0
1122,66.97948916408667,200.0
1123,61.37287151702787,200.0
1124,65.96845975232199,200.0
1125,61.31965944272446,200.0
1126,62.01141640866872,200.0
1127,59.99419504643962,200.0
1128,59.79585913312693,200.0
1129,62.54837461300309,200.0
1130,61.71149380804953,200.0
1131,67.04721362229101,200.0
1132,60.27960526315789,200.0
1133,60.84075077399381,200.0
1134,60.41505417956657,200.0
1135,61.05843653250775,200.0
1136,64.18343653250773,200.0
1137,59.578173374613,200.0
1138,61.6921439628483,200.0
1139,58.15595975232199,200.0
1140,62.34520123839008,200.0
1141,61.26644736842104,200.0
1142,62.43227554179566,200.0
1143,62.17589009287925,200.0
1144,61.35835913312694,200.0
1145,61.90015479876162,200.0
1146,60.323142414860676,200.0
1147,55.950077399380795,200.0
1148,63.3513931888545,200.0
1149,57.59481424148607,200.0
1150,60.62306501547987,200.0
1151,59.99419504643962,200.0
1152,62.10816563467491,200.0
1153,61.9485294117647,200.0
1154,60.3328173374613,200.0
1155,61.39705882352941,200.0
1156,61.42608359133126,200.0
1157,64.04315015479878,200.0
1158,61.42608359133128,200.0
1159,62.08397832817338,200.0
1160,58.58649380804953,200.0
1161,62.83862229102165,200.0
1162,62.05011609907121,200.0
1163,60.01838235294117,200.0
1164,57.986648606811144,200.0
1165,64.3624226006192,200.0
1166,64.20762383900929,200.0
1167,58.88641640866873,200.0
1168,60.105456656346746,200.0
1169,61.47929566563468,200.0
1170,58.209171826625386,200.0
1171,55.722716718266255,200.0
1172,60.09578173374613,200.0
1173,64.16892414860682,200.0
1174,61.81791795665634,200.0
1175,55.57759287925696,200.0
1176,58.363970588235304,200.0
1177,61.03424922600619,200.0
1178,62.27263931888545,200.0
1179,61.871130030959755,200.0
1180,66.234520123839,200.0
1181,64.50270897832816,200.0
1182,61.73568111455108,200.0
1183,61.70181888544892,200.0
1184,63.01277089783281,200.0
1185,61.750193498452,200.0
1186,60.9375,200.0
1187,58.654218266253864,200.0
1188,62.33068885448917,200.0
1189,61.764705882352956,200.0
1190,64.72523219814241,200.0
1191,62.79024767801858,200.0
1192,60.71013931888545,200.0
1193,59.99419504643962,200.0
1194,56.02263931888545,200.0
1195,60.75367647058823,200.0
1196,59.220201238390096,200.0
1197,63.390092879256976,200.0
1198,62.96923374613004,200.0
1199,62.350038699690415,200.0
1200,62.57256191950464,200.0
1201,60.3811919504644,200.0
1202,61.871130030959755,200.0
1203,63.68517801857585,200.0
1204,60.22639318885449,200.0
1205,59.026702786377705,200.0
1206,61.26160990712075,200.0
1207,62.31133900928793,200.0
1208,63.82062693498454,200.0
1209,60.4392414860681,200.0
1210,61.8953173374613,200.0
1211,57.52708978328173,200.0
1212,62.12267801857586,200.0
1213,61.94369195046441,200.0
1214,63.128869969040245,200.0
1215,62.41776315789473,200.0
1216,65.29121517027865,200.0
1217,62.94020897832816,200.0
1218,62.42743808049536,200.0
1219,63.13854489164088,200.0
1220,60.24574303405572,200.0
1221,60.98103715170279,200.0
1222,59.15247678018576,200.0
1223,56.046826625387,200.0
1224,63.167569659442734,200.0
1225,58.992840557275535,200.0
1226,63.54005417956657,200.0
1227,65.91524767801857,200.0
1228,63.90286377708978,200.0
1229,64.73006965944273,200.0
1230,57.69640092879257,200.0
1231,64.5123839009288,200.0
1232,62.86764705882353,200.0
1233,61.8953173374613,200.0
1234,61.30998452012382,200.0
1235,59.69910990712075,200.0
1236,60.037732198142415,200.0
1237,60.874613003095966,200.0
1238,65.04934210526315,200.0
1239,59.907120743034056,200.0
1240,58.678405572755416,200.0
1241,59.83939628482972,200.0
1242,57.193304953560364,200.0
1243,59.74748452012384,200.0
1244,61.13099845201239,200.0
1245,59.03637770897833,200.0
1246,63.83997678018576,200.0
1247,59.28308823529412,200.0
1248,67.11493808049536,200.0
1249,64.15924922600618,200.0
1250,65.72174922600618,200.0
1251,59.428212074303396,200.0
1252,60.89396284829722,200.0
1253,66.94562693498453,200.0
1254,63.153057275541805,200.0
1255,61.0874613003096,200.0
1256,62.55321207430341,200.0
1257,60.98587461300309,200.0
1258,61.309984520123834,200.0
1259,63.109520123839005,200.0
1260,63.012770897832816,200.0
1261,62.51451238390093,200.0
1262,62.20975232198142,200.0
1263,61.55185758513932,200.0
1264,67.45356037151703,200.0
1265,63.757739938080505,200.0
1266,63.056308049535616,200.0
1267,60.942337461300305,200.0
1268,60.08126934984519,200.0
1269,60.39570433436532,200.0
1270,59.31211300309597,200.0
1271,63.854489164086694,200.0
1272,61.42608359133128,200.0
1273,66.53444272445822,200.0
1274,61.46478328173375,200.0
1275,58.509094427244584,200.0
1276,61.7405185758514,200.0
1277,57.54643962848297,200.0
1278,62.34036377708979,200.0
1279,62.68866099071207,200.0
1280,65.81366099071208,200.0
1281,60.942337461300305,200.0
1282,60.337654798761605,200.0
1283,65.32023993808049,200.0
1284,59.162151702786375,200.0
1285,62.67898606811144,200.0
1286,61.247097523219814,200.0
1287,64.66234520123841,200.0
1288,60.56985294117647,200.0
1289,63.86416408668729,200.0
1290,61.08262383900929,200.0
1291,61.16002321981424,200.0
1292,67.38583591331269,200.0
1293,64.44949690402478,200.0
1294,61.798568111455126,200.0
1295,66.60700464396284,200.0
1296,62.45162538699689,200.0
1297,63.752902476780186,200.0
1298,58.654218266253864,200.0
1299,61.40673374613004,200.0
1300,59.43788699690403,200.0
1301,61.32449690402477,200.0
1302,64.74458204334366,200.0
1303,63.56424148606811,200.0
1304,58.81385448916409,200.0
1305,60.690789473684205,200.0
1306,62.03560371517028,200.0
1307,60.42956656346749,200.0
1308,62.89667182662538,200.0
1309,57.56095201238391,200.0
1310,57.45936532507739,200.0
1311,55.60178018575851,200.0
1312,58.79450464396285,200.0
1313,62.59674922600619,200.0
1314,59.79102167182663,200.0
1315,65.51373839009288,200.0
1316,62.06946594427244,200.0
1317,60.21188080495355,200.0
1318,59.418537151702786,200.0
1319,61.33417182662539,200.0
1320,58.52844427244582,200.0
1321,67.1294504643963,200.0
1322,62.19523993808049,200.0
1323,61.551857585139324,200.0
1324,65.44601393188856,200.0
1325,64.54624613003097,200.0
1326,60.68595201238389,200.0
1327,63.119195046439636,200.0
1328,62.56288699690402,200.0
1329,62.36455108359134,200.0
1330,59.88293343653251,200.0
1331,60.85042569659442,200.0
1332,60.594040247678016,200.0
1333,58.90092879256966,200.0
1334,61.01489938080495,200.0
1335,61.343846749226,200.0
1336,61.46478328173375,200.0
1337,61.45510835913313,200.0
1338,57.710913312693506,200.0
1339,64.02380030959752,200.0
1340,65.19930340557278,200.0
1341,61.67763157894736,200.0
1342,62.95955882352943,200.0
1343,60.81656346749225,200.0
1344,58.41718266253869,200.0
1345,62.90634674922602,200.0
1346,61.580882352941174,200.0
1347,60.52631578947368,200.0
1348,60.79721362229102,200.0
1349,62.62093653250775,200.0
1350,56.704721362229094,200.0
1351,61.85661764705884,200.0
1352,58.68324303405573,200.0
1353,59.166989164086694,200.0
1354,58.1656346749226,200.0
1355,61.3390092879257,200.0
1356,63.69485294117646,200.0
1357,63.60777863777089,200.0
1358,61.68246904024768,200.0
1359,58.7171052631579,200.0
1360,63.74806501547988,200.0
1361,62.886996904024784,200.0
1362,59.37500000000001,200.0
1363,61.0342492260062,200.0
1364,63.88835139318888,200.0
1365,60.44407894736842,200.0
1366,61.450270897832816,200.0
1367,59.4765866873065,200.0
1368,62.64512383900929,200.0
1369,63.88351393188856,200.0
1370,58.7219427244582,200.0
1371,59.52012383900929,200.0
1372,61.92917956656347,200.0
1373,57.24167956656347,200.0
1374,62.74671052631578,200.0
1375,61.05359907120743,200.0
1376,64.13989938080495,200.0
1377,58.2672213622291,200.0
1378,62.08397832817337,200.0
1379,61.83243034055728,200.0
1380,61.97755417956655,200.0
1381,62.9595588235294,200.0
1382,58.286571207430335,200.0
1383,59.55882352941177,200.0
1384,63.414280185758514,200.0
1385,55.688854489164086,200.0
1386,61.30514705882353,200.0
1387,60.97136222910217,200.0
1388,61.934017027863774,200.0
1389,60.19736842105263,200.0
1390,61.851780185758514,200.0
1391,61.40189628482973,200.0
1392,62.39357585139319,200.0
1393,59.69910990712074,200.0
1394,61.38254643962849,200.0
1395,62.27747678018576,200.0
1396,61.0874613003096,200.0
1397,64.94775541795664,200.0
1398,61.65828173374614,200.0
1399,66.00232198142416,200.0
1400,64.54624613003095,200.0
1401,63.13854489164087,200.0
1402,64.28502321981422,200.0
1403,60.70046439628483,200.0
1404,63.59810371517028,200.0
1405,64.59462074303406,200.0
1406,62.253289473684205,200.0
1407,56.55959752321981,200.0
1408,58.03018575851394,200.0
1409,61.40673374613002,200.0
1410,61.62441950464396,200.0
1411,60.81656346749225,200.0
1412,57.52225232198141,200.0
1413,64.08184984520123,200.0
1414,62.47581269349844,200.0
1415,57.12558049535603,200.0
1416,61.35835913312694,200.0
1417,60.62306501547988,200.0
1418,63.27883126934984,200.0
1419,58.06404798761609,200.0
1420,58.83804179566564,200.0
1421,58.29140866873065,200.0
1422,64.83165634674921,200.0
1423,63.70452786377708,200.0
1424,60.56501547987615,200.0
1425,63.796439628482965,200.0
1426,59.52012383900929,200.0
1427,59.66041021671827,200.0
1428,60.65208978328174,200.0
1429,57.65286377708978,200.0
1430,62.838622291021665,200.0
1431,60.071594427244584,200.0
1432,60.34249226006191,200.0
1433,61.67279411764706,200.0
1434,63.75290247678017,200.0
1435,59.76199690402477,200.0
1436,55.42279411764705,200.0
1437,63.63196594427245,200.0
1438,65.09771671826626,200.0
1439,64.22213622291022,200.0
1440,59.084752321981426,200.0
1441,62.20975232198142,200.0
1442,62.16621517027864,200.0
1443,62.345201238390096,200.0
1444,61.45994582043343,200.0
1445,61.19872291021673,200.0
1446,62.108165634674926,200.0
1447,62.74671052631578,200.0
1448,58.83804179566563,200.0
1449,62.93537151702788,200.0
1450,64.33339783281734,200.0
1451,61.82759287925696,200.0
1452,60.3860294117647,200.0
1453,62.56288699690402,200.0
1454,63.83030185758515,200.0
1455,61.59539473684211,200.0
1456,62.96439628482972,200.0
1457,63.065982972136226,200.0
1458,60.511803405572756,200.0
1459,61.30030959752321,200.0
1460,65.14609133126936,200.0
1461,60.9858746130031,200.0
1462,58.78482972136223,200.0
1463,56.77728328173374,200.0
1464,60.74400154798761,200.0
1465,58.38332043343653,200.0
1466,61.27128482972136,200.0
1467,61.96787925696596,200.0
1468,58.18014705882352,200.0
1469,58.610681114551085,200.0
1470,58.7703173374613,200.0
1471,57.73510061919504,200.0
1472,62.267801857585134,200.0
1473,58.223684210526315,200.0
1474,62.6499613003096,200.0
1475,59.01219040247678,200.0
1476,61.68246904024768,200.0
1477,59.82004643962848,200.0
1478,60.92298761609907,200.0
1479,60.36184210526315,200.0
1480,62.28231424148608,200.0
1481,59.38951238390093,200.0
1482,64.00928792569661,200.0
1483,59.90228328173375,200.0
1484,63.414280185758514,200.0
1485,63.46265479876162,200.0
1486,62.67414860681112,200.0
1487,62.49516253869968,200.0
1488,61.05359907120743,200.0
1489,61.1938854489164,200.0
1490,61.01489938080495,200.0
1491,60.961687306501545,200.0
1492,55.456656346749234,200.0
1493,63.5110294117647,200.0
1494,62.74671052631578,200.0
1495,61.64376934984519,200.0
1496,61.06811145510836,200.0
1497,59.578173374613,200.0
1498,57.42550309597522,200.0
1499,57.067530959752325,200.0
1500,63.50135448916408,200.0
1501,60.23606811145511,200.0
1502,59.171826625387,200.0
1503,62.57739938080496,200.0
1504,58.63486842105263,200.0
1505,61.271284829721374,200.0
1506,61.711493808049546,200.0
1507,61.4889705882353,200.0
1508,61.503482972136226,200.0
1509,61.34868421052632,200.0
1510,63.215944272445824,200.0
1511,63.78192724458205,200.0
1512,59.74264705882353,200.0
1513,63.69485294117646,200.0
1514,60.39570433436532,200.0
1515,56.680534055727556,200.0
1516,61.00038699690402,200.0
1517,61.987229102167184,200.0
1518,59.60719814241486,200.0
1519,66.51993034055728,200.0
1520,63.29334365325077,200.0
1521,60.86977554179566,200.0
1522,57.091718266253864,200.0
1523,60.71981424148606,200.0
1524,62.68382352941177,200.0
1525,62.71768575851394,200.0
1526,61.20356037151702,200.0
1527,64.32372291021673,200.0
1528,58.61551857585139,200.0
1529,65.70239938080496,200.0
1530,64.3092105263158,200.0
1531,63.82062693498451,200.0
1532,58.41234520123838,200.0
1533,61.145510835913306,200.0
1534,57.17395510835913,200.0
1535,63.041795665634666,200.0
1536,60.89396284829722,200.0
1537,63.80611455108359,200.0
1538,61.09229876160992,200.0
1539,57.667376160990706,200.0
1540,64.3043730650155,200.0
1541,57.681888544891635,200.0
1542,62.296826625387,200.0
1543,57.70607585139318,200.0
1544,58.46555727554179,200.0
1545,58.79934210526316,200.0
1546,61.40189628482973,200.0
1547,63.636803405572756,200.0
1548,62.63544891640868,200.0
1549,62.94504643962849,200.0
1550,55.76141640866873,200.0
1551,60.52631578947369,200.0
1552,59.99903250773994,200.0
1553,64.45433436532507,200.0
1554,65.1654411764706,200.0
1555,63.26915634674923,200.0
1556,57.27070433436532,200.0
1557,62.48065015479876,200.0
1558,58.37364551083592,200.0
1559,60.49245356037152,200.0
1560,63.61261609907121,200.0
1561,62.291989164086694,200.0
1562,63.17724458204334,200.0
1563,62.591911764705884,200.0
1564,65.96362229102168,200.0
1565,58.05921052631578,200.0
1566,62.15654024767804,200.0
1567,61.542182662538686,200.0
1568,64.44949690402477,200.0
1569,61.09713622291022,200.0
1570,55.75174148606811,200.0
1571,60.77302631578947,200.0
1572,58.25754643962847,200.0
1573,59.196013931888544,200.0
1574,61.13099845201239,200.0
1575,65.39280185758514,200.0
1576,57.58513931888545,200.0
1577,63.365905572755416,200.0
1578,61.27128482972136,200.0
1579,60.74400154798762,200.0
1580,61.871130030959755,200.0
1581,61.58088235294116,200.0
1582,58.05921052631578,200.0
1583,64.1544117647059,200.0
1584,63.143382352941174,200.0
1585,61.41640866873065,200.0
1586,61.05843653250775,200.0
1587,59.515286377708975,200.0
1588,62.74671052631578,200.0
1589,64.85584365325079,200.0
1590,59.099264705882355,200.0
1591,57.56095201238389,200.0
1592,63.97542569659442,200.0
1593,58.66389318885449,200.0
1594,57.29489164086688,200.0
1595,59.307275541795676,200.0
1596,62.24361455108359,200.0
1597,62.63544891640866,200.0
1598,61.19388544891641,200.0
1599,58.784829721362236,200.0
1600,61.35352167182662,200.0
1601,59.22987616099071,200.0
1602,58.310758513931894,200.0
1603,62.538699690402474,200.0
1604,60.56985294117647,200.0
1605,63.41428018575851,200.0
1606,59.433049535603715,200.0
1607,66.07004643962848,200.0
1608,60.550503095975216,200.0
1609,60.34249226006194,200.0
1610,61.629256965944265,200.0
1611,59.65073529411765,200.0
1612,66.05069659442722,200.0
1613,63.772252321981405,200.0
1614,62.65963622291021,200.0
1615,59.824883900928796,200.0
1616,55.66950464396285,200.0
1617,56.16292569659443,200.0
1618,64.82198142414863,200.0
1619,61.03424922600619,200.0
1620,65.13157894736844,200.0
1621,61.7453560371517,200.0
1622,63.327205882352956,200.0
1623,60.70046439628483,200.0
1624,63.4578173374613,200.0
1625,60.995549535603715,200.0
1626,62.891834365325074,200.0
1627,63.16756965944272,200.0
1628,61.73568111455108,200.0
1629,58.712267801857585,200.0
1630,61.17937306501549,200.0
1631,63.380417956656345,200.0
1632,59.1234520123839,200.0
1633,62.901509287925684,200.0
1634,62.42743808049537,200.0
1635,67.84539473684212,200.0
1636,58.43653250773994,200.0
1637,61.208397832817326,200.0
1638,63.78192724458205,200.0
1639,57.1062306501548,200.0
1640,60.11996904024767,200.0
1641,59.4282120743034,200.0
1642,63.54005417956655,200.0
1643,62.78541021671825,200.0
1644,58.83804179566563,200.0
1645,64.20762383900929,200.0
1646,57.70123839009288,200.0
1647,60.124806501547994,200.0
1648,57.32875386996905,200.0
1649,61.1358359133127,200.0
1650,58.5719814241486,200.0
1651,56.59829721362229,200.0
1652,63.781927244582036,200.0
1653,61.895317337461286,200.0
1654,58.083397832817326,200.0
1655,59.98452012383901,200.0
1656,62.461300309597526,200.0
1657,58.63003095975233,200.0
1658,59.844233746130044,200.0
1659,64.66718266253869,200.0
1660,63.73355263157896,200.0
1661,62.75154798761611,200.0
1662,57.9140866873065,200.0
1663,60.12964396284829,200.0
1664,62.379063467492266,200.0
1665,60.90363777089783,200.0
1666,61.15518575851394,200.0
1667,63.912538699690415,200.0
1668,59.196013931888544,200.0
1669,61.69698142414862,200.0
1670,60.400541795665625,200.0
1671,60.58920278637771,200.0
1672,64.75909442724458,200.0
1673,64.91389318885449,200.0
1674,62.01625386996904,200.0
1675,63.796439628482965,200.0
1676,62.42743808049537,200.0
1677,63.859326625387,200.0
1678,58.74613003095975,200.0
1679,62.44678792569659,200.0
1680,60.061919504643974,200.0
1681,60.88428792569659,200.0
1682,62.780572755417964,200.0
1683,61.42608359133126,200.0
1684,65.57178792569661,200.0
1685,56.443498452012385,200.0
1686,56.46768575851393,200.0
1687,60.337654798761605,200.0
1688,63.36106811145511,200.0
1689,62.87732198142414,200.0
1690,58.455882352941174,200.0
1691,61.22291021671826,200.0
1692,62.79024767801858,200.0
1693,63.01760835913313,200.0
1694,60.105456656346746,200.0
1695,63.32720588235294,200.0
1696,63.20143188854489,200.0
1697,62.08881578947368,200.0
1698,63.1965944272446,200.0
1699,55.577592879256976,200.0
1700,61.4889705882353,200.0
1701,65.01064241486067,200.0
1702,60.60371517027864,200.0
1703,65.89589783281734,200.0
1704,63.133707430340536,200.0
1705,62.47581269349847,200.0
1706,60.98103715170278,200.0
1707,59.81037151702785,200.0
1708,66.11842105263158,200.0
1709,59.6845975232198,200.0
1710,65.18479102167183,200.0
1711,62.262964396284815,200.0
1712,61.01006191950464,200.0
1713,62.906346749226,200.0
1714,63.148219814241486,200.0
1715,61.10197368421053,200.0
1716,67.11493808049535,200.0
1717,60.58920278637771,200.0
1718,58.09307275541796,200.0
1719,62.99825851393189,200.0
1720,61.9436919504644,200.0
1721,59.181501547987615,200.0
1722,59.03637770897833,200.0
1723,66.50058049535603,200.0
1724,60.85526315789474,200.0
1725,62.224264705882355,200.0
1726,59.70878482972137,200.0
1727,63.02728328173374,200.0
1728,59.52012383900928,200.0
1729,58.93962848297214,200.0
1730,60.424729102167184,200.0
1731,61.48897058823528,200.0
1732,58.80417956656347,200.0
1733,61.11648606811144,200.0
1734,62.95472136222912,200.0
1735,61.363196594427244,200.0
1736,64.59945820433437,200.0
1737,60.80688854489164,200.0
1738,61.034249226006175,200.0
1739,62.73219814241484,200.0
1740,64.19311145510835,200.0
1741,62.12267801857586,200.0
1742,63.77225232198142,200.0
1743,61.59055727554179,200.0
1744,61.213235294117645,200.0
1745,64.52689628482973,200.0
1746,61.43092105263157,200.0
1747,59.2734133126935,200.0
1748,63.71420278637772,200.0
1749,62.61126160990712,200.0
1750,64.47368421052633,200.0
1751,62.01141640866874,200.0
1752,63.56424148606811,200.0
1753,60.93266253869968,200.0
1754,57.440015479876166,200.0
1755,62.074303405572756,200.0
1756,64.63815789473684,200.0
1757,63.14821981424149,200.0
1758,61.01006191950464,200.0
1759,62.80959752321983,200.0
1760,59.03637770897833,200.0
1761,57.169117647058826,200.0
1762,63.433630030959755,200.0
1763,58.809017027863774,200.0
1764,59.602360681114554,200.0
1765,58.412345201238395,200.0
1766,59.34113777089783,200.0
1767,61.25677244582043,200.0
1768,61.13099845201238,200.0
1769,62.23393962848298,200.0
1770,57.07720588235294,200.0
1771,66.06037151702787,200.0
1772,61.13099845201239,200.0
1773,60.14415634674923,200.0
1774,59.31211300309597,200.0
1775,62.97407120743033,200.0
1776,59.08958978328173,200.0
1777,61.750193498452006,200.0
1778,61.70181888544891,200.0
1779,57.12074303405573,200.0
1780,64.40112229102166,200.0
1781,59.54431114551084,200.0
1782,62.94020897832816,200.0
1783,64.6671826625387,200.0
1784,60.94233746130032,200.0
1785,58.42202012383902,200.0
1786,58.262383900928796,200.0
1787,63.312693498452006,200.0
1788,60.98103715170278,200.0
1789,58.65421826625387,200.0
1790,57.42550309597523,200.0
1791,59.781346749225996,200.0
1792,60.55050309597523,200.0
1793,56.951431888544896,200.0
1794,63.128869969040245,200.0
1795,62.243614551083574,200.0
1796,56.23065015479876,200.0
1797,58.61551857585139,200.0
1798,57.98181114551084,200.0
1799,63.16756965944272,200.0
1800,60.71013931888544,200.0
1801,64.21729876160988,200.0
1802,58.26238390092879,200.0
1803,57.13525541795666,200.0
1804,61.23258513931887,200.0
1805,61.57120743034055,200.0
1806,63.723877708978335,200.0
1807,61.213235294117645,200.0
1808,63.2594814241486,200.0
1809,62.61126160990712,200.0
1810,61.86629256965945,200.0
1811,62.77089783281734,200.0
1812,61.25677244582043,200.0
1813,58.24303405572756,200.0
1814,59.40886222910216,200.0
1815,61.66795665634675,200.0
1816,63.27883126934984,200.0
1817,62.0065789473684,200.0
1818,58.25754643962848,200.0
1819,59.18150154798761,200.0
1820,61.276122291021665,200.0
1821,62.04044117647059,200.0
1822,58.27689628482972,200.0
1823,62.26296439628484,200.0
1824,58.562306501547994,200.0
1825,62.3016640866873,200.0
1826,59.37016253869969,200.0
1827,60.89396284829721,200.0
1828,65.63951238390092,200.0
1829,63.733552631578945,200.0
1830,59.10410216718266,200.0
1831,64.03347523219814,200.0
1832,63.01760835913313,200.0
1833,60.110294117647065,200.0
1834,63.394930340557266,200.0
1835,61.450270897832816,200.0
1836,60.221555727554176,200.0
1837,61.808243034055735,200.0
1838,58.98800309597524,200.0
1839,61.01006191950464,200.0
1840,61.11164860681115,200.0
1841,63.56907894736842,200.0
1842,64.39144736842104,200.0
1843,65.91524767801856,200.0
1844,62.161377708978335,200.0
1845,62.96439628482972,200.0
1846,57.43517801857586,200.0
1847,64.14957430340557,200.0
1848,64.48819659442725,200.0
1849,62.470975232198136,200.0
1850,57.2610294117647,200.0
1851,60.008707430340564,200.0
1852,63.57391640866872,200.0
1853,60.937500000000014,200.0
1854,63.26431888544892,200.0
1855,62.51934984520124,200.0
1856,61.03424922600619,200.0
1857,60.99071207430341,200.0
1858,60.071594427244584,200.0
1859,64.07217492260061,200.0
1860,59.82004643962848,200.0
1861,60.318304953560364,200.0
1862,64.15441176470588,200.0
1863,61.76954334365326,200.0
1864,62.73219814241485,200.0
1865,59.26373839009289,200.0
1866,63.419117647058826,200.0
1867,64.53173374613004,200.0
1868,57.53192724458204,200.0
1869,62.44678792569658,200.0
1870,64.23664860681113,200.0
1871,60.874613003095966,200.0
1872,63.3997678018576,200.0
1873,56.21130030959753,200.0
1874,64.77844427244581,200.0
1875,61.70665634674921,200.0
1876,58.16079721362229,200.0
1877,62.21942724458205,200.0
1878,66.14744582043346,200.0
1879,62.63061145510837,200.0
1880,63.02728328173374,200.0
1881,62.92569659442723,200.0
1882,61.256772445820445,200.0
1883,62.69349845201239,200.0
1884,61.03424922600619,200.0
1885,59.553986068111456,200.0
1886,63.58842879256966,200.0
1887,62.46130030959751,200.0
1888,58.426857585139324,200.0
1889,58.397832817337466,200.0
1890,64.40595975232199,200.0
1891,63.32236842105262,200.0
1892,60.594040247678016,200.0
1893,61.80824303405572,200.0
1894,61.934017027863774,200.0
1895,62.99825851393189,200.0
1896,63.68034055727554,200.0
1897,65.06869195046438,200.0
1898,59.86358359133128,200.0
1899,64.10119969040248,200.0
1900,62.64512383900929,200.0
1901,65.72174922600618,200.0
1902,60.313467492260045,200.0
1903,58.05921052631579,200.0
1904,62.137190402476776,200.0
1905,62.89667182662539,200.0
1906,56.961106811145505,200.0
1907,59.20568885448916,200.0
1908,59.6797600619195,200.0
1909,58.14628482972137,200.0
1910,62.84829721362229,200.0
1911,63.148219814241486,200.0
1912,61.542182662538686,200.0
1913,58.073722910216716,200.0
1914,59.2250386996904,200.0
1915,60.274767801857585,200.0
1916,60.60371517027864,200.0
1917,61.78889318885449,200.0
1918,67.72929566563468,200.0
1919,57.55611455108358,200.0
1920,62.81927244582043,200.0
1921,58.08823529411764,200.0
1922,58.43653250773993,200.0
1923,58.03018575851394,200.0
1924,67.43904798761612,200.0
1925,61.55185758513932,200.0
1926,60.26509287925696,200.0
1927,64.04315015479877,200.0
1928,62.567724458204324,200.0
1929,63.307856037151716,200.0
1930,59.25406346749225,200.0
1931,62.761222910216716,200.0
1932,63.60294117647059,200.0
1933,62.204914860681114,200.0
1934,60.84075077399381,200.0
1935,61.029411764705884,200.0
1936,62.06946594427245,200.0
1937,60.9375,200.0
1938,66.01199690402478,200.0
1939,60.908475232198136,200.0
1940,63.12403250773994,200.0
1941,58.23335913312693,200.0
1942,60.74400154798761,200.0
1943,62.46613777089783,200.0
1944,61.22774767801858,200.0
1945,59.88777089783282,200.0
1946,58.45104489164087,200.0
1947,61.06811145510836,200.0
1948,60.81172600619195,200.0
1949,63.06114551083592,200.0
1950,62.19523993808049,200.0
1951,61.846942724458195,200.0
1952,67.18266253869967,200.0
1953,58.90092879256966,200.0
1954,60.56017801857586,200.0
1955,58.13660990712075,200.0
1956,59.2250386996904,200.0
1957,63.42395510835912,200.0
1958,59.53947368421052,200.0
1959,61.35835913312695,200.0
1960,63.704527863777095,200.0
1961,61.18421052631578,200.0
1962,59.360487616099064,200.0
1963,62.55321207430341,200.0
1964,62.05495356037151,200.0
1965,60.83591331269349,200.0
1966,61.38254643962848,200.0
1967,59.18150154798762,200.0
1968,62.33552631578946,200.0
1969,61.953366873065015,200.0
1970,58.74613003095976,200.0
1971,60.627902476780186,200.0
1972,60.961687306501545,200.0
1973,66.92627708978328,200.0
1974,57.67705108359133,200.0
1975,60.74400154798762,200.0
1976,64.43014705882354,200.0
1977,62.23393962848298,200.0
1978,65.02999226006193,200.0
1979,61.49864551083592,200.0
1980,58.42202012383901,200.0
1981,64.53173374613003,200.0
1982,62.38873839009288,200.0
1983,58.43169504643962,200.0
1984,63.525541795665625,200.0
1985,61.503482972136226,200.0
1986,63.49167956656347,200.0
1987,62.509674922600624,200.0
1988,65.32991486068111,200.0
1989,58.44136996904025,200.0
1990,56.869195046439636,200.0
1991,61.6389318885449,200.0
1992,59.35565015479876,200.0
1993,59.76683436532508,200.0
1994,60.352167182662534,200.0
1995,63.31269349845202,200.0
1996,60.61339009287925,200.0
1997,62.190402476780186,200.0
1998,63.27883126934984,200.0
1999,62.7563854489164,200.0
2000,61.31965944272446,200.0
2001,62.53386222910218,200.0
2002,62.983746130030966,200.0
2003,60.579527863777095,200.0
2004,61.972716718266234,200.0
2005,60.05708204334365,200.0
2006,63.86900154798762,200.0
2007,62.27263931888545,200.0
2008,61.59055727554179,200.0
2009,58.789667182662534,200.0
2010,64.2124613003096,200.0
2011,67.29392414860682,200.0
2012,58.141447368421055,200.0
2013,60.158668730650156,200.0
2014,60.908475232198136,200.0
2015,59.21052631578947,200.0
2016,62.016253869969034,200.0
2017,64.97194272445822,200.0
2018,66.00715944272444,200.0
2019,57.59481424148606,200.0
2020,59.82004643962847,200.0
2021,59.64106037151703,200.0
2022,58.54295665634675,200.0
2023,64.03831269349845,200.0
2024,59.29760061919505,200.0
2025,64.13506191950465,200.0
2026,58.741292569659436,200.0
2027,65.35410216718265,200.0
2028,61.629256965944265,200.0
2029,61.70181888544891,200.0
2030,58.34945820433436,200.0
2031,59.86358359133127,200.0
2032,63.79643962848299,200.0
2033,62.533862229102155,200.0
2034,60.8310758513932,200.0
2035,62.30166408668729,200.0
2036,60.30863003095974,200.0
2037,61.60990712074304,200.0
2038,59.35565015479877,200.0
2039,62.17589009287925,200.0
2040,58.5719814241486,200.0
2041,66.15712074303406,200.0
2042,61.745356037151716,200.0
2043,61.43575851393189,200.0
2044,64.69620743034054,200.0
2045,61.79856811145511,200.0
2046,63.02244582043343,200.0
2047,64.22697368421052,200.0
2048,62.074303405572756,200.0
2049,61.78889318885449,200.0
2050,60.11996904024767,200.0
2051,61.203560371517035,200.0
2052,62.441950464396285,200.0
2053,61.82759287925696,200.0
2054,60.39570433436532,200.0
2055,58.05437306501547,200.0
2056,65.0203173374613,200.0
2057,64.17376160990712,200.0
2058,59.90228328173375,200.0
2059,64.47368421052632,200.0
2060,63.89802631578947,200.0
2061,66.45704334365325,200.0
2062,65.18479102167183,200.0
2063,60.424729102167184,200.0
2064,64.99129256965945,200.0
2065,56.22097523219814,200.0
2066,58.58165634674922,200.0
2067,56.36126160990712,200.0
2068,63.3997678018576,200.0
2069,61.28579721362229,200.0
2070,61.556695046439636,200.0
2071,61.12616099071209,200.0
2072,62.29682662538701,200.0
2073,63.462654798761605,200.0
2074,63.32236842105262,200.0
2075,60.642414860681114,200.0
2076,59.27825077399381,200.0
2077,59.31211300309598,200.0
2078,57.014318885448915,200.0
2079,65.07836687306501,200.0
2080,62.93537151702787,200.0
2081,62.761222910216716,200.0
2082,64.18343653250776,200.0
2083,59.65557275541795,200.0
2084,63.095007739938104,200.0
2085,60.75367647058823,200.0
2086,59.01702786377708,200.0
2087,61.982391640866865,200.0
2088,63.22078173374613,200.0
2089,60.8891253869969,200.0
2090,61.750193498452006,200.0
2091,58.70259287925697,200.0
2092,61.87596749226006,200.0
2093,60.00386996904024,200.0
2094,59.752321981424146,200.0
2095,67.33262383900927,200.0
2096,62.36938854489164,200.0
2097,62.30650154798761,200.0
2098,57.72542569659442,200.0
2099,57.53676470588235,200.0
2100,58.57681888544891,200.0
2101,62.75154798761611,200.0
2102,60.27960526315789,200.0
2103,61.50832043343653,200.0
2104,61.01973684210527,200.0
2105,62.99342105263158,200.0
2106,53.608746130030966,200.0
2107,64.43982198142416,200.0
2108,61.619582043343655,200.0
2109,65.85236068111455,200.0
2110,63.63680340557277,200.0
2111,62.04044117647059,200.0
2112,63.81095201238391,200.0
2113,57.13041795665635,200.0
2114,63.13854489164087,200.0
2115,62.33068885448917,200.0
2116,61.266447368421055,200.0
2117,61.6389318885449,200.0
2118,62.34036377708978,200.0
2119,59.92163312693498,200.0
2120,57.98664860681115,200.0
2121,62.96439628482972,200.0
2122,60.21671826625387,200.0
2123,63.31753095975232,200.0
2124,60.77302631578947,200.0
2125,62.33068885448917,200.0
2126,63.3078560371517,200.0
2127,59.72329721362228,200.0
2128,62.71284829721361,200.0
2129,60.90363777089783,200.0
2130,62.83378482972136,200.0
2131,60.5359907120743,200.0
2132,66.23935758513933,200.0
2133,63.74806501547989,200.0
2134,62.61609907120743,200.0
2135,62.166215170278655,200.0
2136,61.9436919504644,200.0
2137,60.62306501547988,200.0
2138,59.88293343653251,200.0
2139,55.248645510835914,200.0
2140,55.99361455108358,200.0
2141,62.41776315789473,200.0
2142,64.875193498452,200.0
2143,64.25116099071205,200.0
2144,62.04044117647059,200.0
2145,62.558049535603715,200.0
2146,56.143575851393194,200.0
2147,60.85042569659442,200.0
2148,62.01141640866874,200.0
2149,60.36667956656347,200.0
2150,57.546439628482965,200.0
2151,62.180727554179555,200.0
2152,61.40673374613004,200.0
2153,57.754450464396285,200.0
2154,60.269930340557266,200.0
2155,62.50967492260061,200.0
2156,58.63486842105264,200.0
2157,63.3030185758514,200.0
2158,63.08049535603715,200.0
2159,62.54353715170278,200.0
2160,57.73510061919505,200.0
2161,60.250580495356026,200.0
2162,58.55746904024768,200.0
2163,57.55611455108359,200.0
2164,62.20007739938081,200.0
2165,60.09094427244582,200.0
2166,61.276122291021665,200.0
2167,65.43633900928793,200.0
2168,60.14899380804953,200.0
2169,64.20762383900929,200.0
2170,62.08397832817337,200.0
2171,62.746710526315795,200.0
2172,57.54643962848297,200.0
2173,59.999032507739955,200.0
2174,62.703173374613,200.0
2175,64.94775541795666,200.0
2176,64.29469814241486,200.0
2177,64.03347523219816,200.0
2178,61.513157894736835,200.0
2179,61.039086687306494,200.0
2180,58.862229102167184,200.0
2181,61.67763157894736,200.0
2182,60.400541795665625,200.0
2183,60.7391640866873,200.0
2184,64.28986068111456,200.0
2185,65.01064241486067,200.0
2186,57.212654798761605,200.0
2187,59.379837461300305,200.0
2188,59.25890092879257,200.0
2189,63.95607585139319,200.0
2190,63.68034055727554,200.0
2191,62.171052631578945,200.0
2192,66.68924148606811,200.0
2193,65.0106424148607,200.0
2194,62.84829721362229,200.0
2195,61.343846749226,200.0
2196,65.65402476780184,200.0
2197,60.76335139318886,200.0
2198,62.50967492260061,200.0
2199,62.6499613003096,200.0
2200,65.75077399380804,200.0
2201,61.517995356037154,200.0
2202,60.25058049535604,200.0
2203,62.51451238390092,200.0
2204,61.10197368421053,200.0
2205,61.271284829721374,200.0
2206,61.2906346749226,200.0
2207,57.47871517027864,200.0
2208,59.51044891640867,200.0
2209,60.84075077399381,200.0
2210,57.53192724458204,200.0
2211,59.61687306501546,200.0
2212,59.72329721362229,200.0
2213,58.31075851393189,200.0
2214,60.47310371517027,200.0
2215,65.04934210526316,200.0
2216,58.823529411764696,200.0
2217,59.32662538699691,200.0
2218,66.52476780185759,200.0
2219,62.56772445820434,200.0
2220,59.79102167182663,200.0
2221,64.96226780185759,200.0
2222,60.695626934984524,200.0
2223,60.734326625386984,200.0
2224,60.8891253869969,200.0
2225,60.690789473684205,200.0
2226,66.30224458204333,200.0
2227,57.0046439628483,200.0
2228,61.42124613003096,200.0
2229,65.39280185758514,200.0
2230,59.80553405572755,200.0
2231,63.66582817337461,200.0
2232,62.108165634674926,200.0
2233,63.19659442724457,200.0
2234,55.70336687306502,200.0
2235,61.86145510835913,200.0
2236,69.14667182662541,200.0
2237,61.97271671826625,200.0
2238,65.61532507739938,200.0
2239,66.5392801857585,200.0
2240,63.10952012383902,200.0
2241,65.44117647058823,200.0
2242,59.59268575851394,200.0
2243,63.10952012383899,200.0
2244,63.777089783281724,200.0
2245,65.09771671826627,200.0
2246,63.59326625386996,200.0
2247,63.05147058823528,200.0
2248,61.02457430340558,200.0
2249,60.211880804953566,200.0
2250,60.37151702786376,200.0
2251,59.176664086687296,200.0
2252,61.35835913312694,200.0
2253,63.346555727554176,200.0
2254,62.761222910216716,200.0
2255,61.74051857585138,200.0
2256,56.627321981424146,200.0
2257,60.89396284829722,200.0
2258,63.786764705882355,200.0
2259,61.68730650154798,200.0
2260,61.953366873065015,200.0
2261,64.96226780185759,200.0
2262,61.92917956656347,200.0
2263,58.692917956656345,200.0
2264,60.49729102167181,200.0
2265,60.79237616099071,200.0
2266,63.109520123839005,200.0
2267,63.1046826625387,200.0
2268,61.339009287925684,200.0
2269,60.55534055727554,200.0
2270,62.00657894736843,200.0
2271,61.20839783281734,200.0
2272,64.3237229102167,200.0
2273,59.452399380804955,200.0
2274,64.64299535603715,200.0
2275,64.00445046439629,200.0
2276,60.80205108359132,200.0
2277,63.91737616099071,200.0
2278,62.36938854489164,200.0
2279,59.36532507739939,200.0
2280,63.5642414860681,200.0
2281,63.472329721362215,200.0
2282,62.127515479876166,200.0
2283,63.32236842105262,200.0
2284,61.866292569659436,200.0
2285,61.580882352941174,200.0
2286,63.346555727554176,200.0
2287,62.02109133126935,200.0
2288,60.10061919504643,200.0
2289,63.26431888544891,200.0
2290,64.19311145510837,200.0
2291,60.48277863777089,200.0
2292,57.99632352941177,200.0
2293,58.98800309597523,200.0
2294,59.834558823529406,200.0
2295,61.70665634674923,200.0
2296,60.74400154798762,200.0
2297,60.676277089783284,200.0
2298,58.79450464396285,200.0
2299,58.06888544891641,200.0
2300,61.66795665634677,200.0
2301,57.08204334365325,200.0
2302,62.954721362229094,200.0
2303,61.513157894736835,200.0
2304,62.345201238390096,200.0
2305,64.44949690402477,200.0
2306,62.741873065015476,200.0
2307,62.790247678018595,200.0
2308,59.82004643962849,200.0
2309,62.31133900928791,200.0
2310,64.13989938080495,200.0
2311,61.914667182662534,200.0
2312,60.129643962848306,200.0
2313,62.26780185758515,200.0
2314,63.29334365325079,200.0
2315,64.42530959752322,200.0
2316,59.01702786377709,200.0
2317,59.636222910216716,200.0
2318,59.723297213622295,200.0
2319,62.84829721362229,200.0
2320,63.9125386996904,200.0
2321,60.81172600619196,200.0
2322,63.71904024767804,200.0
2323,61.653444272445824,200.0
2324,56.129063467492266,200.0
2325,60.971362229102155,200.0
2326,60.574690402476776,200.0
2327,61.290634674922615,200.0
2328,63.87867647058823,200.0
2329,59.689434984520126,200.0
2330,63.98510061919505,200.0
2331,62.949883900928796,200.0
2332,60.23606811145511,200.0
2333,62.98858359133126,200.0
2334,60.352167182662534,200.0
2335,61.37770897832819,200.0
2336,62.48065015479876,200.0
2337,66.47639318885449,200.0
2338,59.59752321981424,200.0
2339,62.809597523219814,200.0
2340,62.872484520123834,200.0
2341,64.16408668730652,200.0
2342,59.11377708978328,200.0
2343,59.534636222910216,200.0
2344,62.33068885448917,200.0
2345,61.9485294117647,200.0
2346,61.653444272445824,200.0
2347,62.56288699690402,200.0
2348,61.36803405572755,200.0
2349,63.723877708978335,200.0
2350,55.9452399380805,200.0
2351,60.724651702786375,200.0
2352,66.3312693498452,200.0
2353,60.352167182662534,200.0
2354,63.9512383900929,200.0
2355,61.21807275541795,200.0
2356,61.121323529411775,200.0
2357,61.45510835913313,200.0
2358,65.74593653250773,200.0
2359,64.13506191950465,200.0
2360,64.52205882352942,200.0
2361,60.327979876160995,200.0
2362,61.19388544891641,200.0
2363,63.0563080495356,200.0
2364,56.51606037151702,200.0
2365,62.76606037151702,200.0
2366,61.04876160990712,200.0
2367,65.00096749226006,200.0
2368,55.94040247678019,200.0
2369,63.5642414860681,200.0
2370,64.17859907120744,200.0
2371,64.41079721362229,200.0
2372,60.071594427244584,200.0
2373,63.92705108359132,200.0
2374,65.11222910216718,200.0
2375,61.851780185758514,200.0
2376,65.95394736842105,200.0
2377,59.244388544891635,200.0
2378,62.63061145510836,200.0
2379,65.61048761609905,200.0
2380,54.55205108359133,200.0
2381,61.17453560371517,200.0
2382,61.94852941176472,200.0
2383,59.5249613003096,200.0
2384,65.95878482972137,200.0
2385,62.67414860681115,200.0
2386,67.16815015479877,200.0
2387,60.31346749226006,200.0
2388,60.516640866873075,200.0
2389,59.79585913312694,200.0
2390,58.054373065015476,200.0
2391,61.967879256965944,200.0
2392,59.350812693498455,200.0
2393,56.965944272445824,200.0
2394,61.04876160990713,200.0
2395,63.59326625386998,200.0
2396,57.67705108359133,200.0
2397,60.676277089783284,200.0
2398,60.37635448916408,200.0
2399,61.05359907120743,200.0
2400,63.94640092879256,200.0
2401,64.34791021671826,200.0
2402,60.86493808049536,200.0
2403,62.76606037151702,200.0
2404,61.73084365325077,200.0
2405,58.4703947368421,200.0
2406,62.27263931888545,200.0
2407,60.41989164086687,200.0
2408,64.59462074303406,200.0
2409,64.03347523219814,200.0
2410,57.57546439628483,200.0
2411,57.914086687306494,200.0
2412,62.25328947368422,200.0
2413,59.22987616099073,200.0
2414,60.58920278637771,200.0
2415,60.41989164086689,200.0
2416,62.98858359133128,200.0
2417,62.379063467492244,200.0
2418,57.29489164086688,200.0
2419,60.332817337461314,200.0
2420,61.16002321981424,200.0
2421,60.187693498452006,200.0
2422,63.34655572755417,200.0
2423,56.63215944272446,200.0
2424,58.88641640866872,200.0
2425,60.424729102167184,200.0
2426,64.3092105263158,200.0
2427,59.118614551083596,200.0
2428,62.19523993808049,200.0
2429,59.108939628482965,200.0
2430,62.65963622291021,200.0
2431,60.55050309597523,200.0
2432,62.29198916408668,200.0
2433,61.65828173374613,200.0
2434,63.26915634674923,200.0
2435,62.65479876160989,200.0
2436,62.39841331269349,200.0
2437,60.03773219814241,200.0
2438,60.652089783281724,200.0
2439,58.76064241486068,200.0
2440,64.08184984520125,200.0
2441,60.62306501547988,200.0
2442,64.96710526315789,200.0
2443,60.724651702786375,200.0
2444,60.255417956656345,200.0
2445,63.68034055727554,200.0
2446,55.99361455108359,200.0
2447,61.47445820433436,200.0
2448,61.31482198142415,200.0
2449,60.31346749226006,200.0
2450,61.31482198142415,200.0
2451,60.09094427244582,200.0
2452,61.532507739938076,200.0
2453,63.69969040247679,200.0
2454,55.596942724458195,200.0
2455,63.956075851393216,200.0
2456,65.71207430340556,200.0
2457,57.14976780185758,200.0
2458,63.196594427244584,200.0
2459,64.7300696594427,200.0
2460,57.2610294117647,200.0
2461,57.88506191950464,200.0
2462,59.34113777089784,200.0
2463,61.34868421052632,200.0
2464,60.390866873065015,200.0
2465,60.48277863777089,200.0
2466,57.70123839009288,200.0
2467,63.29818111455109,200.0
2468,61.01973684210526,200.0
2469,61.116486068111456,200.0
2470,57.71575077399381,200.0
2471,62.36938854489163,200.0
2472,64.34307275541794,200.0
2473,60.695626934984524,200.0
2474,61.97271671826625,200.0
2475,61.919504643962846,200.0
2476,63.87383900928793,200.0
2477,58.402670278637764,200.0
2478,64.7687693498452,200.0
2479,60.49729102167183,200.0
2480,57.35294117647059,200.0
2481,62.44678792569659,200.0
2482,62.41776315789473,200.0
2483,62.03076625386996,200.0
2484,63.40460526315789,200.0
2485,61.034249226006175,200.0
2486,61.06327399380805,200.0
2487,61.73084365325077,200.0
2488,63.423955108359145,200.0
2489,61.43092105263158,200.0
2490,63.24013157894736,200.0
2491,61.856617647058826,200.0
2492,63.133707430340564,200.0
2493,61.5421826625387,200.0
2494,61.74051857585138,200.0
2495,61.40673374613002,200.0
2496,64.51238390092878,200.0
2497,63.26915634674923,200.0
2498,58.94446594427245,200.0
2499,63.08049535603715,200.0
2500,61.1358359133127,200.0
2501,61.04876160990712,200.0
2502,62.3016640866873,200.0
2503,59.56366099071207,200.0
2504,60.52631578947369,200.0
2505,59.07991486068112,200.0
2506,60.265092879256976,200.0
2507,62.233939628482965,200.0
2508,62.91602167182663,200.0
2509,57.21265479876162,200.0
2510,60.13448142414861,200.0
2511,63.79643962848298,200.0
2512,61.35352167182662,200.0
2513,57.86087461300309,200.0
2514,61.871130030959755,200.0
2515,58.17530959752322,200.0
2516,61.07778637770898,200.0
2517,64.90421826625388,200.0
2518,61.271284829721374,200.0
2519,62.204914860681114,200.0
2520,60.65208978328174,200.0
2521,58.480069659442734,200.0
2522,61.218072755417964,200.0
2523,61.95336687306502,200.0
2524,60.424729102167184,200.0
2525,64.58010835913312,200.0
2526,61.71633126934984,200.0
2527,63.02728328173375,200.0
2528,63.530379256965944,200.0
2529,56.26934984520124,200.0
2530,60.30379256965945,200.0
2531,64.7203947368421,200.0
2532,58.99767801857586,200.0
2533,64.53657120743033,200.0
2534,62.99342105263158,200.0
2535,60.284442724458195,200.0
2536,64.03831269349844,200.0
2537,66.6844040247678,200.0
2538,60.21671826625388,200.0
2539,63.690015479876166,200.0
2540,64.98645510835912,200.0
2541,61.04392414860681,200.0
2542,60.86010061919505,200.0
2543,62.31133900928793,200.0
2544,64.14473684210527,200.0
2545,61.71149380804953,200.0
2546,61.532507739938076,200.0
2547,59.06056501547987,200.0
2548,60.56017801857586,200.0
2549,62.838622291021665,200.0
2550,62.74671052631578,200.0
2551,64.7155572755418,200.0
2552,66.26354489164086,200.0
2553,62.05011609907121,200.0
2554,56.022639318885446,200.0
2555,60.92298761609908,200.0
2556,60.990712074303396,200.0
2557,61.58088235294116,200.0
2558,64.6236455108359,200.0
2559,61.914667182662534,200.0
2560,62.267801857585134,200.0
2561,65.48471362229101,200.0
2562,60.53115325077398,200.0
2563,61.25677244582043,200.0
2564,60.23606811145511,200.0
2565,65.18479102167183,200.0
2566,59.25406346749226,200.0
2567,61.43092105263158,200.0
2568,57.68188854489165,200.0
2569,60.90363777089783,200.0
2570,63.64647832817337,200.0
2571,60.50696594427245,200.0
2572,59.858746130030966,200.0
2573,60.92298761609907,200.0
2574,60.37635448916408,200.0
2575,63.92221362229102,200.0
2576,60.62306501547988,200.0
2577,61.440595975232206,200.0
2578,63.085332817337466,200.0
2579,56.67569659442726,200.0
2580,61.77921826625387,200.0
2581,60.16350619195046,200.0
2582,59.6265479876161,200.0
2583,64.03347523219816,200.0
2584,64.69620743034056,200.0
2585,63.92221362229103,200.0
2586,57.88022445820433,200.0
2587,65.46536377708979,200.0
2588,58.60100619195047,200.0
2589,63.27883126934985,200.0
2590,63.09984520123838,200.0
2591,63.49651702786379,200.0
2592,60.00870743034056,200.0
2593,63.74806501547988,200.0
2594,67.29392414860683,200.0
2595,60.41505417956655,200.0
2596,62.01141640866874,200.0
2597,60.1780185758514,200.0
2598,60.816563467492266,200.0
2599,59.10410216718266,200.0
2600,60.46826625386998,200.0
2601,64.48819659442725,200.0
2602,60.76335139318885,200.0
2603,61.05843653250775,200.0
2604,64.73006965944272,200.0
2605,60.2747678018576,200.0
2606,65.77012383900927,200.0
2607,60.55050309597523,200.0
2608,62.495162538699695,200.0
2609,58.25270897832819,200.0
2610,64.62364551083591,200.0
2611,62.524187306501545,200.0
2612,62.891834365325074,200.0
2613,64.49787151702786,200.0
2614,62.1517027863777,200.0
2615,65.40731424148606,200.0
2616,59.63138544891641,200.0
2617,60.303792569659436,200.0
2618,61.45994582043343,200.0
2619,55.57759287925697,200.0
2620,64.23181114551085,200.0
2621,67.30843653250773,200.0
2622,61.484133126934985,200.0
2623,61.343846749226,200.0
2624,63.3030185758514,200.0
2625,62.08881578947369,200.0
2626,65.17995356037149,200.0
2627,60.56017801857586,200.0
2628,61.32933436532509,200.0
2629,63.607778637770906,200.0
2630,60.361842105263165,200.0
2631,63.38525541795666,200.0
2632,60.89396284829721,200.0
2633,59.017027863777095,200.0
2634,62.11784055727554,200.0
2635,64.83649380804955,200.0
2636,66.05069659442724,200.0
2637,62.34036377708978,200.0
2638,64.19311145510835,200.0
2639,58.630030959752325,200.0
2640,57.251354489164086,200.0
2641,60.43924148606811,200.0
2642,59.52012383900929,200.0
2643,60.43440402476781,200.0
2644,59.52979876160991,200.0
2645,63.472329721362215,200.0
2646,59.61203560371517,200.0
2647,63.085332817337466,200.0
2648,61.029411764705884,200.0
2649,59.22987616099072,200.0
2650,64.12538699690401,200.0
2651,58.46071981424149,200.0
2652,59.75715944272446,200.0
2653,61.247097523219814,200.0
2654,60.96652476780185,200.0
2655,64.41079721362229,200.0
2656,60.08610681114551,200.0
2657,59.70394736842106,200.0
2658,65.00096749226006,200.0
2659,59.046052631578945,200.0
2660,63.017608359133135,200.0
2661,59.84423374613004,200.0
2662,63.670665634674926,200.0
2663,64.18827399380805,200.0
2664,63.27399380804953,200.0
2665,59.20085139318885,200.0
2666,63.1627321981424,200.0
2667,62.93053405572755,200.0
2668,63.167569659442705,200.0
2669,64.9719427244582,200.0
2670,57.991486068111456,200.0
2671,62.55321207430341,200.0
2672,58.41234520123838,200.0
2673,55.67917956656347,200.0
2674,65.81849845201238,200.0
2675,61.488970588235304,200.0
2676,61.41640866873066,200.0
2677,56.38061145510836,200.0
2678,59.287925696594435,200.0
2679,62.3887383900929,200.0
2680,60.98587461300309,200.0
2681,61.276122291021665,200.0
2682,62.71768575851394,200.0
2683,60.76335139318885,200.0
2684,62.81443498452012,200.0
2685,60.44407894736842,200.0
2686,61.08262383900929,200.0
2687,58.85739164086687,200.0
2688,63.690015479876166,200.0
2689,59.16215170278638,200.0
2690,63.56424148606811,200.0
2691,60.52631578947369,200.0
2692,61.41640866873066,200.0
2693,59.00735294117647,200.0
2694,62.41292569659442,200.0
2695,64.09636222910217,200.0
2696,60.82623839009288,200.0
2697,61.66795665634674,200.0
2698,60.77786377708978,200.0
2699,63.835139318885425,200.0
2700,63.49651702786379,200.0
2701,65.58146284829724,200.0
2702,65.95394736842105,200.0
2703,60.9375,200.0
2704,62.42743808049534,200.0
2705,63.9560758513932,200.0
2706,58.20917182662538,200.0
2707,63.6029411764706,200.0
2708,62.24361455108359,200.0
2709,63.17724458204336,200.0
2710,62.16621517027864,200.0
2711,62.00174148606811,200.0
2712,55.272832817337466,200.0
2713,60.390866873065015,200.0
2714,63.98510061919505,200.0
2715,54.11667956656347,200.0
2716,60.75367647058823,200.0
2717,61.866292569659436,200.0
2718,57.096555727554176,200.0
2719,64.40112229102165,200.0
2720,63.19175696594429,200.0
2721,63.26431888544892,200.0
2722,59.684597523219814,200.0
2723,62.79992260061919,200.0
2724,59.6265479876161,200.0
2725,62.04044117647059,200.0
2726,59.34597523219814,200.0
2727,60.99071207430341,200.0
2728,58.34462074303405,200.0
2729,60.34732972136223,200.0
2730,62.12267801857586,200.0
2731,58.95414086687306,200.0
2732,58.09307275541795,200.0
2733,57.362616099071204,200.0
2734,62.296826625386984,200.0
2735,61.42608359133128,200.0
2736,60.511803405572756,200.0
2737,63.42395510835913,200.0
2738,63.75290247678017,200.0
2739,61.09713622291021,200.0
2740,61.90015479876162,200.0
2741,59.147639318885446,200.0
2742,63.728715170278655,200.0
2743,64.58010835913313,200.0
2744,61.55185758513932,200.0
2745,60.70046439628483,200.0
2746,64.99129256965945,200.0
2747,60.676277089783284,200.0
2748,58.170472136222905,200.0
2749,64.90905572755418,200.0
2750,59.283088235294116,200.0
2751,61.69698142414862,200.0
2752,58.95414086687306,200.0
2753,58.18498452012383,200.0
2754,59.220201238390096,200.0
2755,58.305921052631575,200.0
2756,65.85719814241486,200.0
2757,58.91060371517028,200.0
2758,62.41776315789474,200.0
2759,64.0141253869969,200.0
2760,64.7736068111455,200.0
2761,64.2172987616099,200.0
2762,61.750193498452006,200.0
2763,64.10119969040248,200.0
2764,56.385448916408656,200.0
2765,59.24922600619196,200.0
2766,58.50425696594427,200.0
2767,58.0640479876161,200.0
2768,58.42685758513932,200.0
2769,60.076431888544896,200.0
2770,64.8655185758514,200.0
2771,61.67279411764706,200.0
2772,60.51664086687306,200.0
2773,62.47581269349844,200.0
2774,65.17511609907122,200.0
2775,63.26915634674921,200.0
2776,59.71845975232199,200.0
2777,60.98103715170278,200.0
2778,59.887770897832816,200.0
2779,55.64047987616099,200.0
2780,60.93266253869968,200.0
2781,60.71981424148606,200.0
2782,59.142801857585134,200.0
2783,61.247097523219814,200.0
2784,64.10603715170278,200.0
2785,59.481424148606806,200.0
2786,62.983746130030966,200.0
2787,61.619582043343655,200.0
2788,58.30108359133127,200.0
2789,61.832430340557266,200.0
2790,60.898800309597526,200.0
2791,63.57875386996904,200.0
2792,60.60371517027864,200.0
2793,60.41505417956657,200.0
2794,58.94930340557274,200.0
2795,65.30089009287927,200.0
2796,64.43498452012383,200.0
2797,62.61126160990712,200.0
2798,62.94020897832816,200.0
2799,59.882933436532504,200.0
2800,59.02186532507739,200.0
2801,65.94427244582043,200.0
2802,57.701238390092875,200.0
2803,63.743227554179555,200.0
2804,60.47794117647059,200.0
2805,60.43440402476781,200.0
2806,63.51586687306502,200.0
2807,60.74400154798762,200.0
2808,59.34113777089784,200.0
2809,63.20626934984519,200.0
2810,66.41834365325077,200.0
2811,59.71362229102167,200.0
2812,61.22774767801858,200.0
2813,61.68246904024768,200.0
2814,58.6155185758514,200.0
2815,62.36938854489164,200.0
2816,63.72871517027864,200.0
2817,65.20414086687306,200.0
2818,62.77089783281734,200.0
2819,61.45994582043343,200.0
2820,64.5655959752322,200.0
2821,60.937500000000014,200.0
2822,63.57875386996904,200.0
2823,63.07082043343653,200.0
2824,60.327979876160995,200.0
2825,61.63893188854489,200.0
2826,58.3639705882353,200.0
2827,63.31753095975233,200.0
2828,60.36667956656347,200.0
2829,62.30166408668732,200.0
2830,61.663119195046434,200.0
2831,61.039086687306494,200.0
2832,61.450270897832816,200.0
2833,60.19253095975232,200.0
2834,64.55108359133128,200.0
2835,65.84752321981424,200.0
2836,61.585719814241486,200.0
2837,64.01412538699688,200.0
2838,63.30785603715169,200.0
2839,61.35352167182663,200.0
2840,58.015673374612994,200.0
2841,60.608552631578945,200.0
2842,60.284442724458195,200.0
2843,63.62712848297213,200.0
2844,62.649961300309585,200.0
2845,62.33068885448917,200.0
2846,59.26857585139319,200.0
2847,61.97755417956657,200.0
2848,63.728715170278626,200.0
2849,62.770897832817326,200.0
2850,62.321013931888544,200.0
2851,60.76335139318885,200.0
2852,61.247097523219814,200.0
2853,59.94582043343654,200.0
2854,60.04740712074303,200.0
2855,61.61474458204333,200.0
2856,60.656927244582036,200.0
2857,61.566369969040245,200.0
2858,60.942337461300305,200.0
2859,62.15654024767803,200.0
2860,60.16350619195047,200.0
2861,60.845588235294116,200.0
2862,62.44678792569659,200.0
2863,63.810952012383886,200.0
2864,61.16486068111455,200.0
2865,59.29276315789473,200.0
2866,58.92995356037152,200.0
2867,62.42260061919505,200.0
2868,61.25193498452012,200.0
2869,61.803405572755416,200.0
2870,62.20975232198142,200.0
2871,58.547794117647065,200.0
2872,58.39783281733745,200.0
2873,64.83165634674921,200.0
2874,61.97271671826625,200.0
2875,61.247097523219814,200.0
2876,64.86068111455108,200.0
2877,61.817917956656345,200.0
2878,63.70452786377708,200.0
2879,60.22639318885448,200.0
2880,62.5,200.0
2881,59.08475232198142,200.0
2882,64.95259287925695,200.0
2883,65.60081269349847,200.0
2884,61.21807275541795,200.0
2885,64.68653250773995,200.0
2886,58.67840557275542,200.0
2887,61.9485294117647,200.0
2888,57.03366873065015,200.0
2889,66.55863003095973,200.0
2890,56.4483359133127,200.0
2891,62.47581269349844,200.0
2892,60.70046439628483,200.0
2893,60.56017801857585,200.0
2894,59.940982972136226,200.0
2895,60.47794117647059,200.0
2896,61.79856811145511,200.0
2897,58.62035603715171,200.0
2898,63.215944272445824,200.0
2899,59.0218653250774,200.0
2900,63.515866873065015,200.0
2901,65.60081269349845,200.0
2902,63.051470588235304,200.0
2903,60.49245356037151,200.0
2904,60.71497678018576,200.0
2905,59.49593653250774,200.0
2906,64.47368421052633,200.0
2907,60.531153250774,200.0
2908,60.032894736842096,200.0
2909,63.87383900928791,200.0
2910,60.45859133126936,200.0
2911,58.43169504643964,200.0
2912,59.6797600619195,200.0
2913,61.479295665634666,200.0
2914,62.78541021671826,200.0
2915,60.961687306501545,200.0
2916,62.35971362229102,200.0
2917,57.2078173374613,200.0
2918,60.44407894736843,200.0
2919,57.082043343653254,200.0
2920,65.59113777089784,200.0
2921,63.72871517027864,200.0
2922,55.74690402476781,200.0
2923,58.978328173374614,200.0
2924,64.02863777089782,200.0
2925,65.02999226006192,200.0
2926,64.82198142414862,200.0
2927,62.277476780185744,200.0
2928,64.45433436532505,200.0
2929,63.58842879256966,200.0
2930,58.58165634674923,200.0
2931,61.2906346749226,200.0
2932,61.45510835913313,200.0
2933,60.0328947368421,200.0
2934,62.55321207430341,200.0
2935,62.45162538699692,200.0
2936,67.95181888544892,200.0
2937,59.86358359133128,200.0
2938,58.38332043343653,200.0
2939,56.49187306501548,200.0
2940,60.0812693498452,200.0
2941,57.99632352941176,200.0
2942,64.83649380804953,200.0
2943,61.343846749226,200.0
2944,61.04392414860681,200.0
2945,64.78811919504643,200.0
2946,61.70181888544892,200.0
2947,61.527670278637785,200.0
2948,60.216718266253864,200.0
2949,58.03018575851393,200.0
2950,62.69349845201238,200.0
2951,62.20975232198143,200.0
2952,64.44465944272444,200.0
2953,60.74883900928793,200.0
2954,59.81037151702787,200.0
2955,58.596168730650156,200.0
2956,62.55321207430341,200.0
2957,61.76954334365326,200.0
2958,55.73239164086687,200.0
2959,60.16350619195047,200.0
2960,63.878676470588246,200.0
2961,62.03560371517028,200.0
2962,60.565015479876166,200.0
2963,61.488970588235304,200.0
2964,60.09578173374613,200.0
2965,56.63699690402477,200.0
2966,60.071594427244584,200.0
2967,57.08688080495356,200.0
2968,59.568498452012385,200.0
2969,62.50483746130032,200.0
2970,59.45723684210526,200.0
2971,61.56636996904026,200.0
2972,59.53947368421053,200.0
2973,61.522832817337466,200.0
2974,61.972716718266234,200.0
2975,61.45994582043345,200.0
2976,62.15654024767803,200.0
2977,64.3672600619195,200.0
2978,62.78057275541794,200.0
2979,62.44678792569659,200.0
2980,62.31133900928793,200.0
2981,63.525541795665625,200.0
2982,58.44136996904024,200.0
2983,61.513157894736835,200.0
2984,63.98026315789474,200.0
2985,60.45375386996904,200.0
2986,58.3155959752322,200.0
2987,58.50425696594427,200.0
2988,60.95684984520124,200.0
2989,59.75715944272446,200.0
2990,61.663119195046434,200.0
2991,64.58010835913313,200.0
2992,59.75232198142413,200.0
2993,58.997678018575854,200.0
2994,60.240905572755416,200.0
2995,60.221555727554176,200.0
2996,61.20356037151702,200.0
2997,62.38873839009288,200.0
2998,61.30030959752321,200.0
2999,63.47232972136223,200.0
3000,59.83455882352941,200.0
3001,64.95259287925697,200.0
3002,60.79721362229102,200.0
3003,58.81385448916408,200.0
3004,59.882933436532504,200.0
3005,61.16486068111456,200.0
3006,61.687306501547994,200.0
3007,58.75096749226006,200.0
3008,58.76547987616099,200.0
3009,57.42550309597523,200.0
3010,61.07778637770897,200.0
3011,60.729489164086694,200.0
3012,60.47310371517028,200.0
3013,60.5359907120743,200.0
3014,62.40808823529413,200.0
3015,63.72871517027864,200.0
3016,63.35139318885449,200.0
3017,61.856617647058826,200.0
3018,59.18633900928791,200.0
3019,56.79179566563467,200.0
3020,61.15518575851394,200.0
3021,59.031540247678016,200.0
3022,62.03560371517028,200.0
3023,60.676277089783284,200.0
3024,61.95820433436532,200.0
3025,61.522832817337466,200.0
3026,64.77844427244581,200.0
3027,64.1544117647059,200.0
3028,60.381191950464384,200.0
3029,64.33339783281733,200.0
3030,59.220201238390096,200.0
3031,62.49516253869971,200.0
3032,62.857972136222905,200.0
3033,59.196013931888544,200.0
3034,61.97271671826626,200.0
3035,59.48626160990711,200.0
3036,62.36455108359132,200.0
3037,64.85100619195047,200.0
3038,65.65402476780187,200.0
3039,65.83784829721363,200.0
3040,67.2310371517028,200.0
3041,64.7736068111455,200.0
3042,61.19388544891641,200.0
3043,61.44059597523219,200.0
3044,60.63757739938081,200.0
3045,63.70452786377708,200.0
3046,61.71149380804952,200.0
3047,62.05011609907121,200.0
3048,62.6499613003096,200.0
3049,62.1517027863777,200.0
3050,60.187693498452006,200.0
3051,58.131772445820445,200.0
3052,61.64376934984521,200.0
3053,53.78289473684212,200.0
3054,63.0563080495356,200.0
3055,64.88003095975233,200.0
3056,62.25812693498451,200.0
3057,63.44814241486066,200.0
3058,64.32372291021672,200.0
3059,57.028831269349844,200.0
3060,58.847716718266255,200.0
3061,60.00386996904024,200.0
3062,62.04527863777089,200.0
3063,63.29818111455109,200.0
3064,62.56288699690402,200.0
3065,63.78192724458205,200.0
3066,61.566369969040245,200.0
3067,57.851199690402474,200.0
3068,55.90170278637771,200.0
3069,64.70104489164088,200.0
3070,61.65828173374614,200.0
3071,60.6424148606811,200.0
3072,63.22561919504645,200.0
3073,64.32372291021672,200.0
3074,61.66795665634674,200.0
3075,61.06327399380804,200.0
3076,59.52012383900928,200.0
3077,58.93479102167182,200.0
3078,61.16486068111455,200.0
3079,60.29411764705881,200.0
3080,61.15518575851394,200.0
3081,62.67414860681114,200.0
3082,64.65750773993807,200.0
3083,59.23471362229102,200.0
3084,61.79373065015479,200.0
3085,59.38467492260062,200.0
3086,57.17395510835914,200.0
3087,62.45646284829722,200.0
3088,59.55398606811145,200.0
3089,59.71845975232197,200.0
3090,60.29895510835913,200.0
3091,57.83668730650156,200.0
3092,62.83862229102168,200.0
3093,59.684597523219814,200.0
3094,60.81172600619193,200.0
3095,59.4282120743034,200.0
3096,64.14473684210527,200.0
3097,59.01702786377709,200.0
3098,63.60294117647059,200.0
3099,60.352167182662534,200.0
3100,60.97136222910217,200.0
3101,63.74322755417957,200.0
3102,62.233939628482965,200.0
3103,58.867066563467496,200.0
3104,66.21517027863779,200.0
3105,64.0673374613003,200.0
3106,63.22078173374613,200.0
3107,61.72116873065015,200.0
3108,61.1358359133127,200.0
3109,59.63138544891641,200.0
3110,60.255417956656345,200.0
3111,63.515866873065015,200.0
3112,57.14009287925696,200.0
3113,65.1267414860681,200.0
3114,59.573335913312704,200.0
3115,63.148219814241486,200.0
3116,61.967879256965944,200.0
3117,58.847716718266255,200.0
3118,65.11222910216718,200.0
3119,57.70123839009288,200.0
3120,61.890479876160995,200.0
3121,62.58223684210526,200.0
3122,60.77786377708978,200.0
3123,59.91195820433436,200.0
3124,58.87674148606811,200.0
3125,62.84829721362229,200.0
3126,61.6969814241486,200.0
3127,61.87596749226006,200.0
3128,61.75503095975232,200.0
3129,57.89957430340557,200.0
3130,60.3860294117647,200.0
3131,60.26025541795667,200.0
3132,60.82623839009287,200.0
3133,62.61126160990712,200.0
3134,64.99129256965942,200.0
3135,65.94427244582043,200.0
3136,64.62848297213623,200.0
3137,62.461300309597526,200.0
3138,62.82410990712075,200.0
3139,66.40866873065016,200.0
3140,60.16350619195046,200.0
3141,62.267801857585134,200.0
3142,62.26296439628483,200.0
3143,60.66176470588237,200.0
3144,62.66931114551083,200.0
3145,62.46613777089783,200.0
3146,65.19446594427245,200.0
3147,59.69910990712075,200.0
3148,62.25328947368422,200.0
3149,59.97000773993808,200.0
3150,60.58920278637771,200.0
3151,60.1344814241486,200.0
3152,63.733552631578945,200.0
3153,58.73645510835913,200.0
3154,62.80476006191951,200.0
3155,60.8310758513932,200.0
3156,64.59462074303404,200.0
3157,60.202205882352935,200.0
3158,60.032894736842096,200.0
3159,59.1234520123839,200.0
3160,59.87325851393188,200.0
3161,60.86010061919504,200.0
3162,61.33417182662538,200.0
3163,58.58165634674922,200.0
3164,62.857972136222905,200.0
3165,63.041795665634666,200.0
3166,62.46613777089782,200.0
3167,60.12964396284829,200.0
3168,62.0404411764706,200.0
3169,61.09229876160992,200.0
3170,62.708010835913306,200.0
3171,60.09578173374613,200.0
3172,58.43653250773994,200.0
3173,59.94098297213623,200.0
3174,64.25599845201238,200.0
3175,64.27534829721361,200.0
3176,60.937499999999986,200.0
3177,59.35081269349845,200.0
3178,59.39434984520124,200.0
3179,63.065982972136226,200.0
3180,65.35410216718266,200.0
3181,59.404024767801864,200.0
3182,66.19582043343654,200.0
3183,67.46323529411765,200.0
3184,62.86764705882353,200.0
3185,62.25328947368422,200.0
3186,61.43575851393189,200.0
3187,60.31346749226006,200.0
3188,60.40054179566564,200.0
3189,63.95123839009287,200.0
3190,62.31617647058823,200.0
3191,63.046633126934985,200.0
3192,63.78192724458205,200.0
3193,60.714976780185744,200.0
3194,64.03831269349845,200.0
3195,61.914667182662534,200.0
3196,59.75232198142415,200.0
3197,59.90712074303405,200.0
3198,62.89667182662539,200.0
3199,60.32797987616098,200.0
3200,61.213235294117645,200.0
3201,60.31830495356038,200.0
3202,62.500000000000014,200.0
3203,60.158668730650156,200.0
3204,60.52147832817338,200.0
3205,61.52767027863777,200.0
3206,63.90770123839008,200.0
3207,61.851780185758514,200.0
3208,62.01625386996904,200.0
3209,62.6499613003096,200.0
3210,64.99129256965944,200.0
3211,62.321013931888544,200.0
3212,62.70801083591332,200.0
3213,62.9015092879257,200.0
3214,65.24284055727554,200.0
3215,64.17376160990712,200.0
3216,59.73780959752322,200.0
3217,62.379063467492266,200.0
3218,64.18827399380805,200.0
3219,58.09307275541795,200.0
3220,63.30785603715169,200.0
3221,61.37770897832816,200.0
3222,61.600232198142415,200.0
3223,63.733552631578945,200.0
3224,61.06327399380805,200.0
3225,59.93130804953561,200.0
3226,59.87325851393189,200.0
3227,61.309984520123834,200.0
3228,57.70123839009288,200.0
3229,61.73568111455108,200.0
3230,55.6985294117647,200.0
3231,59.805534055727556,200.0
3232,61.1358359133127,200.0
3233,61.86629256965945,200.0
3234,57.36261609907121,200.0
3235,60.966524767801864,200.0
3236,62.91118421052631,200.0
3237,60.81172600619195,200.0
3238,62.34036377708978,200.0
3239,61.06327399380805,200.0
3240,60.52147832817337,200.0
3241,60.91815015479876,200.0
3242,56.64667182662539,200.0
3243,61.62925696594428,200.0
3244,60.71497678018576,200.0
3245,61.70665634674923,200.0
3246,62.41292569659442,200.0
3247,62.63544891640866,200.0
3248,61.56636996904023,200.0
3249,62.238777089783284,200.0
3250,58.3155959752322,200.0
3251,60.77786377708978,200.0
3252,59.466911764705884,200.0
3253,64.39628482972135,200.0
3254,63.85448916408671,200.0
3255,62.40325077399381,200.0
3256,60.41021671826625,200.0
3257,62.15170278637771,200.0
3258,58.9154411764706,200.0
3259,59.04605263157895,200.0
3260,64.19311145510835,200.0
3261,60.642414860681114,200.0
3262,62.495162538699695,200.0
3263,65.03482972136224,200.0
3264,61.421246130030966,200.0
3265,63.443304953560364,200.0
3266,61.280959752321984,200.0
3267,64.7203947368421,200.0
3268,62.6499613003096,200.0
3269,63.35139318885447,200.0
3270,61.77438080495355,200.0
3271,62.01141640866874,200.0
3272,62.08397832817338,200.0
3273,57.53192724458205,200.0
3274,62.27263931888545,200.0
3275,65.1654411764706,200.0
3276,58.9734907120743,200.0
3277,64.53657120743036,200.0
3278,60.13931888544892,200.0
3279,55.67434210526316,200.0
3280,60.337654798761605,200.0
3281,61.01006191950464,200.0
3282,62.799922600619205,200.0
3283,61.784055727554176,200.0
3284,63.18691950464396,200.0
3285,62.06462848297215,200.0
3286,66.32643188854489,200.0
3287,60.21671826625387,200.0
3288,61.967879256965944,200.0
3289,65.20897832817339,200.0
3290,58.22852167182663,200.0
3291,59.01219040247678,200.0
3292,63.003095975232206,200.0
3293,65.0203173374613,200.0
3294,62.64512383900927,200.0
3295,60.68595201238391,200.0
3296,65.0686919504644,200.0
3297,64.54140866873065,200.0
3298,55.01644736842106,200.0
3299,62.47097523219815,200.0
3300,62.54353715170278,200.0
3301,59.38467492260061,200.0
3302,58.05921052631579,200.0
3303,63.153057275541805,200.0
3304,64.08184984520122,200.0
3305,64.52689628482972,200.0
3306,62.20975232198142,200.0
3307,63.041795665634666,200.0
3308,63.35623065015481,200.0
3309,62.10332817337462,200.0
3310,60.49245356037152,200.0
3311,62.51934984520124,200.0
3312,61.996904024767794,200.0
3313,66.06037151702786,200.0
3314,61.33417182662538,200.0
3315,60.85042569659442,200.0
3316,61.339009287925684,200.0
3317,64.65267027863777,200.0
3318,64.58010835913312,200.0
3319,62.06946594427244,200.0
3320,60.82623839009288,200.0
3321,61.663119195046434,200.0
3322,63.62229102167183,200.0
3323,61.22774767801858,200.0
3324,63.74322755417957,200.0
3325,62.3500386996904,200.0
3326,60.44891640866874,200.0
3327,62.9595588235294,200.0
3328,61.12616099071207,200.0
3329,60.91815015479876,200.0
3330,59.51044891640867,200.0
3331,60.052244582043336,200.0
3332,64.09636222910216,200.0
3333,64.16892414860682,200.0
3334,61.039086687306494,200.0
3335,59.51528637770898,200.0
3336,62.741873065015476,200.0
3337,61.45994582043343,200.0
3338,63.81578947368422,200.0
3339,58.934791021671835,200.0
3340,65.10255417956658,200.0
3341,61.77438080495355,200.0
3342,60.173181114551085,200.0
3343,58.373645510835914,200.0
3344,60.74883900928793,200.0
3345,65.15092879256966,200.0
3346,66.17163312693499,200.0
3347,61.503482972136226,200.0
3348,61.42124613003096,200.0
3349,65.47020123839012,200.0
3350,59.08475232198143,200.0
3351,61.45994582043343,200.0
3352,61.484133126934985,200.0
3353,63.65131578947368,200.0
3354,64.875193498452,200.0
3355,59.834558823529406,200.0
3356,62.34036377708978,200.0
3357,61.52767027863777,200.0
3358,62.37422600619195,200.0
3359,59.71845975232198,200.0
3360,62.529024767801864,200.0
3361,64.40595975232199,200.0
3362,64.45433436532507,200.0
3363,61.35835913312694,200.0
3364,64.83165634674924,200.0
3365,60.942337461300305,200.0
3366,59.35081269349845,200.0
3367,60.83591331269349,200.0
3368,65.87171052631578,200.0
3369,63.32720588235294,200.0
3370,64.65750773993808,200.0
3371,58.25270897832817,200.0
3372,65.74109907120744,200.0
3373,60.27960526315789,200.0
3374,55.15189628482971,200.0
3375,59.97000773993809,200.0
3376,62.287151702786375,200.0
3377,61.60990712074304,200.0
3378,63.20143188854489,200.0
3379,59.97000773993809,200.0
3380,58.39299535603715,200.0
3381,61.72116873065017,200.0
3382,65.2283281733746,200.0
3383,61.61474458204334,200.0
3384,65.55243808049536,200.0
3385,61.329334365325074,200.0
3386,62.12751547987615,200.0
3387,58.871904024767794,200.0
3388,61.67763157894736,200.0
3389,64.32372291021672,200.0
3390,57.469040247678016,200.0
3391,60.003869969040245,200.0
3392,62.12267801857585,200.0
3393,60.85526315789474,200.0
3394,62.620936532507734,200.0
3395,66.56346749226006,200.0
3396,62.074303405572756,200.0
3397,59.56366099071207,200.0
3398,59.71362229102167,200.0
3399,62.470975232198136,200.0
3400,67.60835913312691,200.0
3401,62.620936532507734,200.0
3402,60.9858746130031,200.0
3403,60.627902476780186,200.0
3404,57.82217492260062,200.0
3405,59.15247678018575,200.0
3406,60.976199690402474,200.0
3407,59.76683436532508,200.0
3408,58.702592879256976,200.0
3409,63.530379256965944,200.0
3410,58.94446594427245,200.0
3411,62.838622291021665,200.0
3412,63.23045665634675,200.0
3413,62.6499613003096,200.0
3414,59.25406346749225,200.0
3415,62.499999999999986,200.0
3416,66.15712074303404,200.0
3417,61.0826238390093,200.0
3418,58.70743034055728,200.0
3419,60.89396284829722,200.0
3420,62.441950464396285,200.0
3421,64.68653250773995,200.0
3422,61.4889705882353,200.0
3423,64.90905572755418,200.0
3424,60.67627708978327,200.0
3425,59.99419504643963,200.0
3426,64.32372291021673,200.0
3427,58.62035603715169,200.0
3428,64.12538699690401,200.0
3429,62.277476780185744,200.0
3430,62.42743808049536,200.0
3431,65.0251547987616,200.0
3432,63.85448916408668,200.0
3433,61.48413312693498,200.0
3434,60.41505417956655,200.0
3435,57.30940402476781,200.0
3436,59.43788699690402,200.0
3437,63.28366873065016,200.0
3438,58.02534829721362,200.0
3439,59.873258513931894,200.0
3440,61.49864551083592,200.0
3441,60.56985294117646,200.0
3442,60.84075077399381,200.0
3443,59.16215170278638,200.0
3444,59.50561145510835,200.0
3445,60.85042569659442,200.0
3446,62.26780185758515,200.0
3447,59.471749226006196,200.0
3448,64.0141253869969,200.0
3449,62.25812693498451,200.0
3450,64.28502321981424,200.0
3451,59.68943498452012,200.0
3452,63.11919504643962,200.0
3453,65.97329721362229,200.0
3454,65.85236068111458,200.0
3455,61.41640866873064,200.0
3456,60.06675696594427,200.0
3457,62.73219814241485,200.0
3458,62.67414860681114,200.0
3459,59.3217879256966,200.0
3460,60.676277089783284,200.0
3461,60.63273993808049,200.0
3462,58.38815789473684,200.0
3463,60.787538699690394,200.0
3464,57.29489164086687,200.0
3465,63.781927244582036,200.0
3466,61.982391640866865,200.0
3467,64.3769349845201,200.0
3468,62.51451238390092,200.0
3469,62.96923374613005,200.0
3470,60.92298761609907,200.0
3471,63.757739938080505,200.0
3472,61.566369969040245,200.0
3473,59.196013931888544,200.0
3474,60.27476780185757,200.0
3475,65.03482972136223,200.0
3476,62.20007739938081,200.0
3477,60.80205108359134,200.0
3478,57.53676470588236,200.0
3479,59.30243808049536,200.0
3480,58.19465944272446,200.0
3481,59.36532507739939,200.0
3482,63.17724458204334,200.0
3483,63.67550309597523,200.0
3484,65.29605263157893,200.0
3485,62.180727554179555,200.0
3486,59.757159442724465,200.0
3487,62.28715170278639,200.0
3488,61.09713622291021,200.0
3489,60.913312693498455,200.0
3490,60.89880030959751,200.0
3491,60.095781733746136,200.0
3492,59.752321981424146,200.0
3493,59.83939628482972,200.0
3494,63.64647832817337,200.0
3495,60.61339009287925,200.0
3496,62.906346749226,200.0
3497,66.31191950464395,200.0
3498,59.4765866873065,200.0
3499,61.87113003095977,200.0
3500,59.27825077399381,200.0
3501,64.73974458204333,200.0
3502,63.63196594427245,200.0
3503,61.726006191950454,200.0
3504,62.07914086687306,200.0
3505,60.51180340557274,200.0
3506,62.296826625387,200.0
3507,64.14473684210526,200.0
3508,59.54914860681115,200.0
3509,60.216718266253864,200.0
3510,64.82681888544892,200.0
3511,61.42608359133126,200.0
3512,63.73355263157896,200.0
3513,60.2409055727554,200.0
3514,64.94291795665634,200.0
3515,64.72039473684212,200.0
3516,56.293537151702786,200.0
3517,63.38525541795666,200.0
3518,57.401315789473685,200.0
3519,60.579527863777095,200.0
3520,59.331462848297214,200.0
3521,64.13989938080495,200.0
3522,66.22484520123837,200.0
3523,60.289280185758514,200.0
3524,59.27825077399381,200.0
3525,62.1468653250774,200.0
3526,60.129643962848306,200.0
3527,59.8780959752322,200.0
3528,62.9015092879257,200.0
3529,59.849071207430335,200.0
3530,63.40460526315789,200.0
3531,62.73703560371517,200.0
3532,61.07294891640866,200.0
3533,63.036958204334375,200.0
3534,60.56017801857586,200.0
3535,62.0404411764706,200.0
3536,63.75290247678017,200.0
3537,62.0017414860681,200.0
3538,62.770897832817326,200.0
3539,61.85661764705884,200.0
3540,63.5061919504644,200.0
3541,63.530379256965944,200.0
3542,62.97407120743033,200.0
3543,59.7281346749226,200.0
3544,61.60506965944272,200.0
3545,58.25754643962848,200.0
3546,58.620356037151694,200.0
3547,63.89802631578946,200.0
3548,57.21265479876161,200.0
3549,57.44485294117648,200.0
3550,59.771671826625386,200.0
3551,60.72465170278639,200.0
3552,63.975425696594435,200.0
3553,60.758513931888544,200.0
3554,67.2407120743034,200.0
3555,63.491679566563455,200.0
3556,62.97407120743033,200.0
3557,59.45239938080494,200.0
3558,59.55882352941176,200.0
3559,61.59055727554179,200.0
3560,64.55592105263158,200.0
3561,65.19930340557275,200.0
3562,63.03695820433436,200.0
3563,66.1861455108359,200.0
3564,60.182856037151694,200.0
3565,55.21962074303405,200.0
3566,62.78057275541795,200.0
3567,62.25812693498451,200.0
3568,56.999806501547994,200.0
3569,59.718459752321984,200.0
3570,66.16679566563468,200.0
3571,62.01141640866874,200.0
3572,61.65828173374613,200.0
3573,62.51934984520124,200.0
3574,65.33475232198143,200.0
3575,63.3030185758514,200.0
3576,65.0203173374613,200.0
3577,59.786184210526315,200.0
3578,60.608552631578945,200.0
3579,65.14609133126935,200.0
3580,64.87035603715172,200.0
3581,62.18556501547988,200.0
3582,58.73645510835914,200.0
3583,62.37422600619195,200.0
3584,60.11996904024768,200.0
3585,60.81172600619195,200.0
3586,59.19117647058823,200.0
3587,60.79721362229103,200.0
3588,59.050890092879264,200.0
3589,60.037732198142415,200.0
3590,61.45510835913313,200.0
3591,61.4889705882353,200.0
3592,63.75773993808049,200.0
3593,61.7453560371517,200.0
3594,64.48819659442725,200.0
3595,64.24148606811146,200.0
3596,62.562886996904034,200.0
3597,57.45452786377709,200.0
3598,57.22716718266254,200.0
3599,64.5123839009288,200.0
3600,61.41640866873065,200.0
3601,64.19311145510837,200.0
3602,61.34868421052631,200.0
3603,59.35565015479875,200.0
3604,58.542956656346746,200.0
3605,64.18827399380804,200.0
3606,61.76954334365326,200.0
3607,60.52631578947368,200.0
3608,60.255417956656345,200.0
3609,62.06462848297213,200.0
3610,59.587848297213625,200.0
3611,61.56153250773994,200.0
3612,57.575464396284836,200.0
3613,63.28366873065016,200.0
3614,63.42395510835913,200.0
3615,61.36803405572755,200.0
3616,57.696400928792556,200.0
3617,63.26431888544891,200.0
3618,63.63196594427245,200.0
3619,59.93614551083591,200.0
3620,61.00038699690402,200.0
3621,60.8891253869969,200.0
3622,60.53115325077398,200.0
3623,59.360487616099064,200.0
3624,65.04450464396285,200.0
3625,57.3142414860681,200.0
3626,62.82410990712075,200.0
3627,65.62983746130031,200.0
3628,62.171052631578945,200.0
3629,64.8655185758514,200.0
3630,64.19311145510835,200.0
3631,64.47852167182661,200.0
3632,57.02399380804953,200.0
3633,66.22968266253869,200.0
3634,59.3798374613003,200.0
3635,55.529218266253864,200.0
3636,60.41989164086687,200.0
3637,63.32236842105264,200.0
3638,61.904992260061924,200.0
3639,59.00735294117647,200.0
3640,63.225619195046434,200.0
3641,62.21942724458205,200.0
3642,60.565015479876166,200.0
3643,60.627902476780186,200.0
3644,58.925116099071204,200.0
3645,61.547020123839005,200.0
3646,62.146865325077414,200.0
3647,61.580882352941174,200.0
3648,60.057082043343655,200.0
3649,62.35487616099071,200.0
3650,62.538699690402474,200.0
3651,61.96787925696596,200.0
3652,57.933436532507756,200.0
3653,65.48471362229101,200.0
3654,61.09229876160992,200.0
3655,60.50696594427245,200.0
3656,62.558049535603715,200.0
3657,59.90228328173375,200.0
3658,61.15034829721361,200.0
3659,65.10255417956655,200.0
3660,63.35623065015479,200.0
3661,61.784055727554176,200.0
3662,58.91544117647058,200.0
3663,60.67627708978327,200.0
3664,59.87325851393189,200.0
3665,63.71904024767803,200.0
3666,62.925696594427244,200.0
3667,60.531153250774,200.0
3668,61.75019349845202,200.0
3669,62.04527863777089,200.0
3670,59.97484520123839,200.0
3671,60.36667956656347,200.0
3672,65.87654798761609,200.0
3673,61.70665634674923,200.0
3674,66.75696594427244,200.0
3675,61.247097523219814,200.0
3676,58.296246130030966,200.0
3677,61.33417182662538,200.0
3678,62.074303405572756,200.0
3679,64.13022445820432,200.0
3680,62.79508513931887,200.0
3681,59.01702786377708,200.0
3682,62.63061145510836,200.0
3683,57.40131578947369,200.0
3684,62.84829721362229,200.0
3685,61.16486068111456,200.0
3686,59.91679566563467,200.0
3687,62.01625386996904,200.0
3688,61.14551083591332,200.0
3689,59.771671826625386,200.0
3690,59.33630030959752,200.0
3691,56.98045665634674,200.0
3692,61.99690402476781,200.0
3693,56.10487616099071,200.0
3694,63.44330495356038,200.0
3695,61.590557275541805,200.0
3696,61.62925696594428,200.0
3697,62.22426470588237,200.0
3698,64.15924922600618,200.0
3699,59.834558823529406,200.0
3700,62.61126160990713,200.0
3701,62.20007739938081,200.0
3702,63.82546439628484,200.0
3703,60.298955108359145,200.0
3704,61.75503095975232,200.0
3705,62.50483746130032,200.0
3706,61.35835913312694,200.0
3707,64.8703560371517,200.0
3708,59.91195820433436,200.0
3709,62.67414860681115,200.0
3710,58.649380804953545,200.0
3711,56.52089783281733,200.0
3712,64.08184984520125,200.0
3713,62.20975232198142,200.0
3714,64.47852167182661,200.0
3715,59.92163312693499,200.0
3716,60.55534055727554,200.0
3717,61.19388544891641,200.0
3718,61.39222136222911,200.0
3719,60.265092879256976,200.0
3720,61.634094427244584,200.0
3721,63.22561919504645,200.0
3722,64.42530959752322,200.0
3723,61.79373065015481,200.0
3724,60.65208978328174,200.0
3725,62.238777089783284,200.0
3726,61.953366873065015,200.0
3727,61.59055727554179,200.0
3728,61.9436919504644,200.0
3729,56.428986068111456,200.0
3730,61.61474458204334,200.0
3731,61.295472136222905,200.0
3732,63.090170278637785,200.0
3733,57.79315015479876,200.0
3734,61.06811145510836,200.0
3735,60.274767801857585,200.0
3736,62.26296439628483,200.0
3737,63.670665634674926,200.0
3738,60.932662538699695,200.0
3739,63.87867647058823,200.0
3740,62.11300309597523,200.0
3741,61.556695046439636,200.0
3742,63.704527863777066,200.0
3743,60.45375386996904,200.0
3744,58.320433436532504,200.0
3745,59.404024767801864,200.0
3746,65.53792569659443,200.0
3747,59.85874613003096,200.0
3748,62.86764705882356,200.0
3749,58.57198142414861,200.0
3750,64.38660990712074,200.0
3751,61.22291021671826,200.0
3752,59.66041021671826,200.0
3753,59.50077399380805,200.0
3754,60.66660216718266,200.0
3755,63.162732198142415,200.0
3756,60.23123065015479,200.0
3757,59.563660990712066,200.0
3758,65.66853715170278,200.0
3759,60.695626934984524,200.0
3760,61.93885448916408,200.0
3761,63.375580495356026,200.0
3762,61.90982972136223,200.0
3763,57.70123839009288,200.0
3764,63.796439628482965,200.0
3765,61.00522445820434,200.0
3766,61.726006191950454,200.0
3767,63.414280185758514,200.0
3768,60.3811919504644,200.0
3769,57.89957430340557,200.0
3770,62.45162538699691,200.0
3771,60.565015479876166,200.0
3772,62.66447368421053,200.0
3773,61.63893188854489,200.0
3774,56.01780185758514,200.0
3775,59.370162538699695,200.0
3776,61.987229102167184,200.0
3777,63.63196594427245,200.0
3778,60.56985294117647,200.0
3779,62.69349845201238,200.0
3780,65.30089009287927,200.0
3781,61.590557275541805,200.0
3782,63.752902476780186,200.0
3783,63.48684210526315,200.0
3784,65.86687306501548,200.0
3785,57.15460526315789,200.0
3786,56.05166408668731,200.0
3787,61.44059597523219,200.0
3788,60.51664086687306,200.0
3789,65.04450464396284,200.0
3790,63.11435758513932,200.0
3791,63.37074303405572,200.0
3792,61.64860681114553,200.0
3793,62.33552631578947,200.0
3794,59.67976006191951,200.0
3795,65.71207430340557,200.0
3796,57.12558049535604,200.0
3797,61.750193498452006,200.0
3798,64.33823529411765,200.0
3799,57.58030185758515,200.0
3800,62.02592879256967,200.0
3801,62.36938854489163,200.0
3802,57.84152476780186,200.0
3803,57.87538699690403,200.0
3804,65.12674148606813,200.0
3805,62.57739938080496,200.0
3806,60.75367647058823,200.0
3807,58.15112229102167,200.0
3808,59.283088235294116,200.0
3809,61.8953173374613,200.0
3810,61.01006191950464,200.0
3811,64.0092879256966,200.0
3812,63.94640092879255,200.0
3813,64.40595975232199,200.0
3814,59.868421052631575,200.0
3815,65.55727554179566,200.0
3816,60.105456656346746,200.0
3817,61.71633126934984,200.0
3818,63.01277089783281,200.0
3819,59.19117647058824,200.0
3820,61.66795665634675,200.0
3821,59.64106037151702,200.0
3822,61.09713622291022,200.0
3823,58.296246130030966,200.0
3824,58.97832817337461,200.0
3825,60.77786377708976,200.0
3826,62.34520123839008,200.0
3827,61.827592879256976,200.0
3828,60.0812693498452,200.0
3829,62.12267801857585,200.0
3830,62.504837461300305,200.0
3831,60.96652476780185,200.0
3832,59.549148606811144,200.0
3833,60.80688854489164,200.0
3834,59.95065789473684,200.0
3835,62.7612229102167,200.0
3836,58.9202786377709,200.0
3837,58.89125386996904,200.0
3838,60.594040247678016,200.0
3839,60.81172600619195,200.0
3840,57.47871517027863,200.0
3841,58.5187693498452,200.0
3842,58.80901702786378,200.0
3843,63.801277089783284,200.0
3844,61.953366873065015,200.0
3845,57.159442724458195,200.0
3846,63.96575077399381,200.0
3847,64.94291795665634,200.0
3848,62.853134674922615,200.0
3849,65.35410216718267,200.0
3850,61.566369969040245,200.0
3851,63.636803405572756,200.0
3852,63.419117647058826,200.0
3853,61.8953173374613,200.0
3854,62.63061145510836,200.0
3855,62.27747678018576,200.0
3856,62.678986068111456,200.0
3857,60.46826625386998,200.0
3858,57.35294117647059,200.0
3859,65.16060371517028,200.0
3860,64.97678018575851,200.0
3861,62.08881578947368,200.0
3862,61.45510835913313,200.0
3863,58.61068111455107,200.0
3864,61.63893188854489,200.0
3865,65.47987616099073,200.0
3866,58.81385448916408,200.0
3867,58.72678018575851,200.0
3868,57.82701238390092,200.0
3869,64.09636222910216,200.0
3870,64.75425696594428,200.0
3871,62.4080882352941,200.0
3872,60.352167182662534,200.0
3873,57.14009287925697,200.0
3874,63.89318885448915,200.0
3875,61.42124613003096,200.0
3876,60.10061919504644,200.0
3877,59.39434984520125,200.0
3878,58.66389318885449,200.0
3879,64.06733746130031,200.0
3880,57.30456656346749,200.0
3881,58.98316563467492,200.0
3882,62.93537151702785,200.0
3883,61.40673374613004,200.0
3884,63.941563467492244,200.0
3885,61.37287151702787,200.0
3886,60.076431888544896,200.0
3887,62.89667182662539,200.0
3888,61.329334365325074,200.0
3889,62.38390092879257,200.0
3890,58.53811919504644,200.0
3891,61.1358359133127,200.0
3892,62.920859133126925,200.0
3893,60.68595201238389,200.0
3894,64.80746904024767,200.0
3895,61.837267801857585,200.0
3896,62.57739938080495,200.0
3897,66.75212848297213,200.0
3898,62.277476780185744,200.0
3899,62.05495356037152,200.0
3900,63.438467492260045,200.0
3901,60.608552631578945,200.0
3902,62.02592879256966,200.0
3903,60.976199690402474,200.0
3904,60.83591331269349,200.0
3905,62.533862229102155,200.0
3906,59.28792569659442,200.0
3907,60.5843653250774,200.0
3908,60.8407507739938,200.0
3909,61.1358359133127,200.0
3910,60.187693498452006,200.0
3911,58.67840557275542,200.0
3912,60.75367647058823,200.0
3913,62.824109907120736,200.0
3914,65.74593653250773,200.0
3915,60.65692724458205,200.0
3916,60.782701238390096,200.0
3917,56.041989164086694,200.0
3918,60.13448142414862,200.0
3919,59.631385448916404,200.0
3920,63.63196594427245,200.0
3921,66.95046439628483,200.0
3922,60.74883900928793,200.0
3923,62.95472136222911,200.0
3924,59.74748452012385,200.0
3925,63.56907894736842,200.0
3926,65.49438854489165,200.0
3927,66.6311919504644,200.0
3928,61.45994582043343,200.0
3929,62.98374613003096,200.0
3930,65.17027863777092,200.0
3931,59.66041021671827,200.0
3932,63.30785603715169,200.0
3933,61.64860681114551,200.0
3934,64.75909442724458,200.0
3935,62.94504643962848,200.0
3936,60.453753869969034,200.0
3937,62.05979102167183,200.0
3938,58.8235294117647,200.0
3939,62.824109907120736,200.0
3940,64.4640092879257,200.0
3941,63.5545665634675,200.0
3942,59.58301083591332,200.0
3943,59.74748452012383,200.0
3944,63.23045665634675,200.0
3945,64.85100619195046,200.0
3946,60.574690402476776,200.0
3947,61.10197368421051,200.0
3948,63.31753095975233,200.0
3949,59.94098297213622,200.0
3950,64.24632352941177,200.0
3951,57.469040247678016,200.0
3952,56.965944272445824,200.0
3953,62.558049535603715,200.0
3954,62.90634674922599,200.0
3955,61.47445820433436,200.0
3956,62.737035603715185,200.0
3957,58.85739164086687,200.0
3958,59.59268575851394,200.0
3959,61.953366873065015,200.0
3960,60.47310371517028,200.0
3961,57.17879256965945,200.0
3962,62.50483746130032,200.0
3963,60.36667956656347,200.0
3964,58.98316563467492,200.0
3965,64.3769349845201,200.0
3966,63.81095201238389,200.0
3967,62.77089783281734,200.0
3968,59.70878482972135,200.0
3969,60.879450464396285,200.0
3970,58.968653250774,200.0
3971,58.692917956656345,200.0
3972,65.47987616099073,200.0
3973,62.39357585139319,200.0
3974,62.05495356037152,200.0
3975,60.661764705882355,200.0
3976,63.399767801857585,200.0
3977,61.24226006191951,200.0
3978,60.47310371517028,200.0
3979,57.69156346749225,200.0
3980,61.60990712074304,200.0
3981,56.327399380804955,200.0
3982,65.11706656346749,200.0
3983,60.057082043343655,200.0
3984,62.88699690402477,200.0
3985,63.5690789473684,200.0
3986,60.666602167182674,200.0
3987,58.00116099071208,200.0
3988,60.77302631578949,200.0
3989,60.85526315789473,200.0
3990,63.26915634674921,200.0
3991,56.728908668730654,200.0
3992,61.029411764705884,200.0
3993,65.92008513931889,200.0
3994,62.04044117647059,200.0
3995,59.418537151702786,200.0
3996,58.48006965944271,200.0
3997,61.1358359133127,200.0
3998,60.47310371517028,200.0
3999,60.69078947368422,200.0
4000,59.23955108359133,200.0
4001,62.02592879256966,200.0
4002,61.00038699690402,200.0
4003,63.9705882352941,200.0
4004,59.065402476780186,200.0
4005,64.3188854489164,200.0
4006,67.51644736842105,200.0
4007,64.265673374613,200.0
4008,64.37209752321984,200.0
4009,59.93130804953561,200.0
4010,61.93885448916408,200.0
4011,62.03560371517027,200.0
4012,61.02941176470587,200.0
4013,65.93943498452013,200.0
4014,58.42202012383901,200.0
4015,59.4282120743034,200.0
4016,62.97407120743034,200.0
4017,66.13293343653251,200.0
4018,65.46052631578945,200.0
4019,58.59616873065016,200.0
4020,65.50406346749226,200.0
4021,57.62383900928793,200.0
4022,58.363970588235304,200.0
4023,60.453753869969034,200.0
4024,62.99342105263158,200.0
4025,64.43498452012383,200.0
4026,63.9173761609907,200.0
4027,61.658281733746115,200.0
4028,62.27747678018577,200.0
4029,63.33204334365323,200.0
4030,58.80417956656346,200.0
4031,59.05572755417956,200.0
4032,60.3811919504644,200.0
4033,60.04740712074304,200.0
4034,59.73780959752321,200.0
4035,61.33417182662539,200.0
4036,59.12828947368422,200.0
4037,62.949883900928796,200.0
4038,58.378482972136226,200.0
4039,57.227167182662534,200.0
4040,55.86784055727554,200.0
4041,59.30243808049536,200.0
4042,64.0092879256966,200.0
4043,59.76199690402476,200.0
4044,63.346555727554176,200.0
4045,59.95549535603715,200.0
4046,57.88022445820433,200.0
4047,64.2076238390093,200.0
4048,63.70452786377708,200.0
4049,63.37074303405572,200.0
4050,62.0984907120743,200.0
4051,58.79450464396285,200.0
4052,62.44678792569659,200.0
4053,62.03076625386996,200.0
4054,60.63273993808049,200.0
4055,60.93266253869968,200.0
4056,61.856617647058826,200.0
4057,58.842879256965944,200.0
4058,61.41157120743034,200.0
4059,62.03560371517028,200.0
4060,65.68788699690401,200.0
4061,64.75909442724458,200.0
4062,61.479295665634666,200.0
4063,58.5671439628483,200.0
4064,61.634094427244584,200.0
4065,61.77921826625387,200.0
4066,59.86842105263159,200.0
4067,62.66447368421051,200.0
4068,61.329334365325074,200.0
4069,59.49109907120744,200.0
4070,64.63332043343655,200.0
4071,70.14802631578948,200.0
4072,59.06056501547988,200.0
4073,62.19523993808049,200.0
4074,62.23877708978327,200.0
4075,63.051470588235304,200.0
4076,58.373645510835914,200.0
4077,61.69698142414862,200.0
4078,61.57604489164087,200.0
4079,62.61609907120743,200.0
4080,58.46071981424149,200.0
4081,61.98239164086687,200.0
4082,60.874613003095966,200.0
4083,64.89938080495355,200.0
4084,61.05843653250775,200.0
4085,60.67143962848298,200.0
4086,61.58088235294119,200.0
4087,61.11648606811144,200.0
4088,63.89318885448917,200.0
4089,60.971362229102155,200.0
4090,61.6969814241486,200.0
4091,61.38254643962848,200.0
4092,57.304566563467496,200.0
4093,57.87538699690403,200.0
4094,62.75154798761609,200.0
4095,63.29334365325077,200.0
4096,64.15924922600618,200.0
4097,59.87809597523219,200.0
4098,57.483552631578945,200.0
4099,60.37635448916408,200.0
4100,62.31617647058823,200.0
4101,63.767414860681114,200.0
4102,59.907120743034056,200.0
4103,58.257546439628484,200.0
4104,61.19388544891641,200.0
4105,59.29276315789473,200.0
4106,61.71633126934984,200.0
4107,58.925116099071204,200.0
4108,66.17163312693499,200.0
4109,62.58707430340558,200.0
4110,58.949303405572756,200.0
4111,62.16137770897832,200.0
4112,64.2124613003096,200.0
4113,65.89106037151703,200.0
4114,62.03560371517027,200.0
4115,64.3624226006192,200.0
4116,63.61745356037152,200.0
4117,62.03076625386996,200.0
4118,56.08068885448916,200.0
4119,64.4156346749226,200.0
4120,59.35081269349844,200.0
4121,65.41215170278637,200.0
4122,63.40460526315789,200.0
4123,58.30108359133126,200.0
4124,60.50696594427244,200.0
4125,55.529218266253864,200.0
4126,61.2470975232198,200.0
4127,59.37500000000001,200.0
4128,62.132352941176485,200.0
4129,63.55940402476778,200.0
4130,62.761222910216716,200.0
4131,68.19369195046438,200.0
4132,61.50832043343653,200.0
4133,60.90847523219815,200.0
4134,60.898800309597526,200.0
4135,62.678986068111456,200.0
4136,59.32662538699691,200.0
4137,63.58359133126936,200.0
4138,62.127515479876166,200.0
4139,58.238196594427244,200.0
4140,65.02999226006193,200.0
4141,61.95820433436532,200.0
4142,65.03966718266254,200.0
4143,60.8407507739938,200.0
4144,57.870549535603715,200.0
4145,61.60506965944272,200.0
4146,63.5642414860681,200.0
4147,61.953366873065015,200.0
4148,61.07778637770897,200.0
4149,63.60777863777089,200.0
4150,62.72252321981424,200.0
4151,58.37364551083592,200.0
4152,62.33552631578947,200.0
4153,56.73858359133127,200.0
4154,61.934017027863774,200.0
4155,63.40944272445821,200.0
