sample_id,accuracy,window_size
0,56.80147058823529,100.0
1,57.59965170278638,100.0
2,58.99284055727554,100.0
3,61.63409442724457,100.0
4,56.965944272445824,100.0
5,58.63003095975232,100.0
6,62.25812693498451,100.0
7,57.08688080495355,100.0
8,59.59752321981424,100.0
9,57.82217492260062,100.0
10,64.13989938080495,100.0
11,58.755804953560364,100.0
12,56.56443498452012,100.0
13,52.8782894736842,100.0
14,59.64589783281734,100.0
15,58.29140866873065,100.0
16,56.28386222910216,100.0
17,55.68401702786378,100.0
18,60.11996904024768,100.0
19,56.63215944272446,100.0
20,57.54160216718267,100.0
21,56.91756965944271,100.0
22,56.42898606811145,100.0
23,59.278250773993804,100.0
24,56.09520123839009,100.0
25,59.24438854489164,100.0
26,60.676277089783284,100.0
27,58.94930340557274,100.0
28,56.661184210526315,100.0
29,52.979876160990706,100.0
30,57.483552631578945,100.0
31,56.32256191950464,100.0
32,56.67569659442724,100.0
33,55.21478328173376,100.0
34,56.55476006191951,100.0
35,57.01915634674922,100.0
36,56.67085913312694,100.0
37,56.16292569659442,100.0
38,56.21130030959752,100.0
39,59.86842105263157,100.0
40,56.83533281733746,100.0
41,59.534636222910216,100.0
42,55.86784055727554,100.0
43,58.726780185758514,100.0
44,62.08881578947369,100.0
45,64.64299535603715,100.0
46,62.529024767801864,100.0
47,58.407507739938076,100.0
48,59.88293343653251,100.0
49,55.118034055727556,100.0
50,59.99419504643963,100.0
51,58.55746904024767,100.0
52,56.23065015479877,100.0
53,58.42202012383901,100.0
54,59.79102167182663,100.0
55,56.16292569659442,100.0
56,61.90982972136223,100.0
57,59.834558823529406,100.0
58,61.71149380804953,100.0
59,60.274767801857585,100.0
60,57.46420278637771,100.0
61,59.29276315789474,100.0
62,57.8657120743034,100.0
63,60.65692724458205,100.0
64,58.44620743034056,100.0
65,61.2857972136223,100.0
66,58.34945820433437,100.0
67,59.22020123839009,100.0
68,61.40189628482973,100.0
69,57.933436532507756,100.0
70,53.42008513931888,100.0
71,54.13602941176471,100.0
72,58.67356811145511,100.0
73,53.38138544891641,100.0
74,59.766834365325074,100.0
75,59.64589783281734,100.0
76,54.643962848297214,100.0
77,59.273413312693506,100.0
78,57.58997678018575,100.0
79,57.101393188854495,100.0
80,58.915441176470594,100.0
81,57.251354489164086,100.0
82,56.927244582043336,100.0
83,56.37093653250774,100.0
84,58.23335913312694,100.0
85,57.63835139318886,100.0
86,58.68324303405572,100.0
87,54.00058049535604,100.0
88,56.559597523219814,100.0
89,61.09229876160992,100.0
90,58.95897832817338,100.0
91,54.21826625386998,100.0
92,56.18227554179567,100.0
93,57.96246130030959,100.0
94,56.68537151702786,100.0
95,62.35971362229103,100.0
96,59.500773993808046,100.0
97,64.27051083591331,100.0
98,54.643962848297214,100.0
99,59.07991486068111,100.0
100,56.94175696594427,100.0
101,55.57275541795666,100.0
102,63.66582817337462,100.0
103,60.274767801857585,100.0
104,60.119969040247675,100.0
105,59.24438854489164,100.0
106,59.916795665634666,100.0
107,57.29005417956655,100.0
108,64.97678018575851,100.0
109,58.33010835913313,100.0
110,59.79102167182663,100.0
111,59.58784829721362,100.0
112,58.01567337461301,100.0
113,59.92163312693498,100.0
114,53.73935758513932,100.0
115,56.74825851393189,100.0
116,57.27554179566564,100.0
117,58.6687306501548,100.0
118,56.57410990712074,100.0
119,55.06965944272446,100.0
120,57.381965944272444,100.0
121,57.299729102167184,100.0
122,55.664667182662534,100.0
123,59.53463622291021,100.0
124,57.493227554179555,100.0
125,57.744775541795654,100.0
126,56.88370743034055,100.0
127,53.850619195046434,100.0
128,58.1172600619195,100.0
129,54.70201238390092,100.0
130,57.07720588235295,100.0
131,61.88564241486068,100.0
132,54.9390479876161,100.0
133,63.312693498452006,100.0
134,59.747484520123834,100.0
135,57.57546439628483,100.0
136,58.30108359133126,100.0
137,61.09713622291021,100.0
138,55.4953560371517,100.0
139,58.591331269349844,100.0
140,58.567143962848306,100.0
141,54.93421052631579,100.0
142,64.51722136222911,100.0
143,61.092298761609904,100.0
144,61.8953173374613,100.0
145,57.16911764705883,100.0
146,59.200851393188856,100.0
147,55.62596749226007,100.0
148,60.30379256965945,100.0
149,58.4655572755418,100.0
150,60.63273993808049,100.0
151,57.69156346749225,100.0
152,62.87732198142414,100.0
153,60.49729102167184,100.0
154,58.11242260061919,100.0
155,55.51954334365326,100.0
156,56.23065015479875,100.0
157,55.785603715170275,100.0
158,61.276122291021665,100.0
159,61.609907120743024,100.0
160,58.659055727554176,100.0
161,63.2111068111455,100.0
162,58.60100619195047,100.0
163,61.04876160990712,100.0
164,61.15034829721361,100.0
165,58.480069659442734,100.0
166,58.934791021671835,100.0
167,57.46904024767801,100.0
168,56.245162538699674,100.0
169,61.18904798761611,100.0
170,55.664667182662534,100.0
171,56.29837461300309,100.0
172,64.1640866873065,100.0
173,61.72116873065015,100.0
174,61.232585139318886,100.0
175,60.9858746130031,100.0
176,58.74613003095975,100.0
177,57.0046439628483,100.0
178,62.44678792569659,100.0
179,55.877515479876166,100.0
180,55.176083591331285,100.0
181,54.51335139318885,100.0
182,61.79856811145511,100.0
183,58.876741486068106,100.0
184,57.38680340557275,100.0
185,62.291989164086694,100.0
186,58.58649380804953,100.0
187,59.94582043343652,100.0
188,53.8796439628483,100.0
189,64.28986068111453,100.0
190,58.25270897832818,100.0
191,62.2436145510836,100.0
192,61.629256965944265,100.0
193,60.66660216718266,100.0
194,58.22368421052631,100.0
195,59.35565015479875,100.0
196,63.68517801857586,100.0
197,59.42337461300309,100.0
198,58.513931888544874,100.0
199,57.38196594427245,100.0
200,56.31288699690403,100.0
201,62.60158668730648,100.0
202,57.01915634674923,100.0
203,60.11996904024767,100.0
204,60.656927244582036,100.0
205,59.50561145510836,100.0
206,58.38815789473684,100.0
207,57.31424148606812,100.0
208,54.77941176470588,100.0
209,57.40131578947369,100.0
210,56.012964396284836,100.0
211,60.09578173374613,100.0
212,62.533862229102155,100.0
213,57.754450464396285,100.0
214,61.503482972136226,100.0
215,59.50077399380805,100.0
216,63.090170278637785,100.0
217,62.22426470588237,100.0
218,59.95549535603715,100.0
219,57.498065015479874,100.0
220,58.257546439628484,100.0
221,60.879450464396285,100.0
222,55.417956656346746,100.0
223,59.74748452012384,100.0
224,57.294891640866865,100.0
225,58.654218266253864,100.0
226,56.99496904024767,100.0
227,56.87886996904025,100.0
228,62.24845201238389,100.0
229,59.44756191950464,100.0
230,61.60990712074304,100.0
231,63.91737616099071,100.0
232,60.153831269349844,100.0
233,59.46207430340557,100.0
234,59.68943498452012,100.0
235,61.67763157894736,100.0
236,62.761222910216716,100.0
237,58.67356811145511,100.0
238,58.68324303405573,100.0
239,58.53328173374613,100.0
240,60.58920278637771,100.0
241,58.63003095975233,100.0
242,59.94582043343652,100.0
243,61.750193498452006,100.0
244,63.19659442724457,100.0
245,60.68595201238389,100.0
246,60.82623839009288,100.0
247,55.41311919504644,100.0
248,60.44407894736842,100.0
249,59.50077399380805,100.0
250,55.901702786377705,100.0
251,61.00522445820434,100.0
252,56.25967492260061,100.0
253,57.61416408668731,100.0
254,60.85042569659442,100.0
255,60.003869969040245,100.0
256,60.80205108359132,100.0
257,58.17047213622291,100.0
258,60.05224458204334,100.0
259,59.2734133126935,100.0
260,58.63486842105263,100.0
261,58.22852167182663,100.0
262,59.91195820433436,100.0
263,59.35565015479876,100.0
264,58.92995356037152,100.0
265,57.967298761609925,100.0
266,62.07914086687306,100.0
267,63.719040247678016,100.0
268,57.73026315789474,100.0
269,59.31211300309598,100.0
270,60.11029411764705,100.0
271,57.79315015479875,100.0
272,60.9858746130031,100.0
273,58.813854489164086,100.0
274,60.008707430340564,100.0
275,60.52631578947369,100.0
276,60.89396284829721,100.0
277,58.31075851393189,100.0
278,58.015673374613,100.0
279,67.25522445820434,100.0
280,60.9858746130031,100.0
281,60.19736842105263,100.0
282,59.418537151702786,100.0
283,58.039860681114554,100.0
284,58.13177244582044,100.0
285,64.63815789473685,100.0
286,57.164280185758514,100.0
287,56.00328947368421,100.0
288,55.71304179566563,100.0
289,60.357004643962846,100.0
290,60.20704334365325,100.0
291,58.180147058823515,100.0
292,56.08068885448916,100.0
293,59.52979876160991,100.0
294,56.88370743034055,100.0
295,62.770897832817326,100.0
296,59.42337461300309,100.0
297,60.54082817337462,100.0
298,59.82488390092879,100.0
299,60.42956656346749,100.0
300,60.695626934984524,100.0
301,59.96033281733746,100.0
302,54.69717492260061,100.0
303,57.401315789473685,100.0
304,58.81869195046439,100.0
305,60.879450464396285,100.0
306,51.32062693498452,100.0
307,58.0640479876161,100.0
308,59.08475232198142,100.0
309,58.63970588235294,100.0
310,61.039086687306494,100.0
311,57.19814241486068,100.0
312,57.37712848297215,100.0
313,60.134481424148596,100.0
314,57.923761609907125,100.0
315,60.424729102167184,100.0
316,58.059210526315795,100.0
317,61.513157894736835,100.0
318,61.508320433436545,100.0
319,52.59771671826625,100.0
320,55.8920278637771,100.0
321,51.78018575851394,100.0
322,55.16157120743034,100.0
323,57.70123839009288,100.0
324,61.92434210526315,100.0
325,57.0046439628483,100.0
326,60.11029411764705,100.0
327,57.159442724458195,100.0
328,59.74748452012384,100.0
329,56.559597523219814,100.0
330,59.20085139318887,100.0
331,60.79721362229102,100.0
332,56.88854489164086,100.0
333,59.78618421052631,100.0
334,56.63215944272446,100.0
335,59.78134674922601,100.0
336,61.35835913312694,100.0
337,61.280959752321984,100.0
338,61.590557275541805,100.0
339,57.97213622291022,100.0
340,59.017027863777095,100.0
341,57.135255417956664,100.0
342,55.78076625386997,100.0
343,64.02863777089783,100.0
344,60.352167182662534,100.0
345,60.966524767801864,100.0
346,57.97697368421053,100.0
347,59.55882352941177,100.0
348,55.0890092879257,100.0
349,61.663119195046434,100.0
350,57.178792569659436,100.0
351,60.86977554179566,100.0
352,59.99419504643963,100.0
353,58.494582043343655,100.0
354,55.01160990712075,100.0
355,57.98664860681116,100.0
356,57.5609520123839,100.0
357,62.98858359133128,100.0
358,63.18691950464396,100.0
359,59.404024767801864,100.0
360,61.04392414860681,100.0
361,61.6969814241486,100.0
362,59.07991486068111,100.0
363,60.08126934984519,100.0
364,56.46768575851393,100.0
365,63.056308049535616,100.0
366,56.64667182662539,100.0
367,57.88022445820434,100.0
368,64.68169504643961,100.0
369,58.8235294117647,100.0
370,60.10061919504644,100.0
371,59.38951238390093,100.0
372,56.72890866873065,100.0
373,55.9452399380805,100.0
374,59.0218653250774,100.0
375,58.96381578947368,100.0
376,56.89338235294118,100.0
377,55.843653250774,100.0
378,61.95820433436532,100.0
379,62.441950464396285,100.0
380,63.62229102167184,100.0
381,60.076431888544874,100.0
382,61.67763157894736,100.0
383,60.62306501547988,100.0
384,60.17801857585139,100.0
385,58.57681888544892,100.0
386,61.88564241486068,100.0
387,56.428986068111456,100.0
388,57.99632352941177,100.0
389,56.11938854489164,100.0
390,59.96033281733746,100.0
391,52.539667182662534,100.0
392,62.61126160990712,100.0
393,61.7453560371517,100.0
394,58.43653250773993,100.0
395,56.78695820433437,100.0
396,57.61416408668731,100.0
397,61.79373065015481,100.0
398,57.05785603715171,100.0
399,57.62867647058823,100.0
400,63.22078173374613,100.0
401,60.511803405572756,100.0
402,60.023219814241486,100.0
403,57.7592879256966,100.0
404,57.9140866873065,100.0
405,58.05437306501548,100.0
406,59.878095975232185,100.0
407,62.524187306501545,100.0
408,62.03076625386998,100.0
409,58.36880804953561,100.0
410,64.20762383900929,100.0
411,60.405379256965944,100.0
412,58.44620743034056,100.0
413,61.90982972136223,100.0
414,62.21942724458205,100.0
415,60.89396284829722,100.0
416,63.78676470588234,100.0
417,55.23413312693498,100.0
418,57.03366873065015,100.0
419,60.057082043343655,100.0
420,54.368227554179576,100.0
421,64.5607585139319,100.0
422,59.31695046439628,100.0
423,61.35835913312695,100.0
424,60.240905572755416,100.0
425,58.42202012383901,100.0
426,60.54566563467494,100.0
427,61.9920665634675,100.0
428,61.78889318885449,100.0
429,60.82623839009288,100.0
430,61.41157120743034,100.0
431,62.906346749226,100.0
432,56.63699690402477,100.0
433,60.02805727554181,100.0
434,58.95414086687306,100.0
435,58.77999226006192,100.0
436,54.83262383900929,100.0
437,62.38873839009288,100.0
438,56.9514318885449,100.0
439,60.357004643962846,100.0
440,59.39434984520123,100.0
441,56.51122291021672,100.0
442,59.578173374613,100.0
443,59.820046439628484,100.0
444,59.64589783281734,100.0
445,64.43982198142417,100.0
446,62.524187306501545,100.0
447,60.342492260061924,100.0
448,55.442143962848306,100.0
449,52.6219040247678,100.0
450,57.08688080495356,100.0
451,57.386803405572756,100.0
452,59.34597523219814,100.0
453,61.469620743034056,100.0
454,67.89376934984521,100.0
455,59.85874613003096,100.0
456,58.79450464396285,100.0
457,56.849845201238395,100.0
458,57.79315015479877,100.0
459,57.35294117647058,100.0
460,60.64725232198143,100.0
461,64.75909442724458,100.0
462,57.53192724458204,100.0
463,59.26373839009287,100.0
464,58.43653250773994,100.0
465,61.871130030959755,100.0
466,61.07778637770898,100.0
467,60.613390092879264,100.0
468,56.97561919504644,100.0
469,60.845588235294116,100.0
470,59.75232198142413,100.0
471,61.67763157894736,100.0
472,60.371517027863774,100.0
473,60.94717492260061,100.0
474,60.76818885448917,100.0
475,56.811145510835914,100.0
476,61.28579721362229,100.0
477,59.34597523219815,100.0
478,60.26509287925696,100.0
479,56.26934984520125,100.0
480,60.850425696594435,100.0
481,59.40402476780186,100.0
482,59.55398606811146,100.0
483,56.23065015479875,100.0
484,62.529024767801864,100.0
485,63.733552631578945,100.0
486,63.89802631578947,100.0
487,58.397832817337466,100.0
488,59.37499999999999,100.0
489,58.683243034055735,100.0
490,55.90654024767803,100.0
491,57.9140866873065,100.0
492,57.73026315789474,100.0
493,60.850425696594435,100.0
494,56.709558823529406,100.0
495,60.94717492260061,100.0
496,59.97484520123839,100.0
497,57.72542569659443,100.0
498,57.02883126934985,100.0
499,59.902283281733745,100.0
500,59.19117647058824,100.0
501,59.694272445820424,100.0
502,58.03018575851394,100.0
503,58.58649380804953,100.0
504,58.53811919504644,100.0
505,58.85255417956656,100.0
506,57.386803405572756,100.0
507,61.15518575851392,100.0
508,59.38467492260062,100.0
509,53.34752321981425,100.0
510,59.97968266253869,100.0
511,54.41660216718266,100.0
512,59.0750773993808,100.0
513,55.88235294117648,100.0
514,61.300309597523224,100.0
515,57.149767801857585,100.0
516,58.29624613003096,100.0
517,54.160216718266255,100.0
518,57.35294117647059,100.0
519,62.00657894736842,100.0
520,57.41582817337461,100.0
521,59.51044891640866,100.0
522,58.98316563467492,100.0
523,59.07507739938081,100.0
524,58.27205882352941,100.0
525,63.19175696594428,100.0
526,60.46826625386996,100.0
527,59.0750773993808,100.0
528,57.91408668730651,100.0
529,61.23742260061919,100.0
530,56.56927244582044,100.0
531,57.88022445820433,100.0
532,56.33707430340558,100.0
533,56.84984520123839,100.0
534,57.85119969040248,100.0
535,53.39589783281733,100.0
536,58.20917182662539,100.0
537,61.222910216718276,100.0
538,60.81172600619195,100.0
539,60.80205108359132,100.0
540,58.997678018575854,100.0
541,59.74748452012384,100.0
542,60.608552631578945,100.0
543,56.58378482972137,100.0
544,61.96304179566564,100.0
545,59.578173374612994,100.0
546,54.52302631578947,100.0
547,59.67008513931888,100.0
548,59.539473684210535,100.0
549,60.10061919504645,100.0
550,62.64512383900929,100.0
551,60.54082817337462,100.0
552,61.04876160990712,100.0
553,57.46904024767802,100.0
554,60.250580495356026,100.0
555,59.11861455108359,100.0
556,54.58107585139319,100.0
557,63.839976780185744,100.0
558,58.86222910216718,100.0
559,62.437113003095966,100.0
560,62.76606037151702,100.0
561,59.73297213622291,100.0
562,60.97619969040249,100.0
563,63.346555727554176,100.0
564,61.79373065015481,100.0
565,60.531153250774,100.0
566,55.35023219814241,100.0
567,60.395704334365334,100.0
568,60.82140092879257,100.0
569,56.67569659442725,100.0
570,62.79992260061919,100.0
571,61.82275541795664,100.0
572,58.42685758513932,100.0
573,62.63544891640866,100.0
574,60.31346749226006,100.0
575,64.21729876160991,100.0
576,55.67434210526315,100.0
577,61.30998452012385,100.0
578,55.93556501547988,100.0
579,60.758513931888544,100.0
580,61.56153250773994,100.0
581,59.06540247678018,100.0
582,65.49922600619198,100.0
583,58.77999226006191,100.0
584,61.237422600619176,100.0
585,58.736455108359124,100.0
586,57.48839009287925,100.0
587,59.85390866873066,100.0
588,65.93943498452013,100.0
589,61.59539473684211,100.0
590,55.99361455108359,100.0
591,62.23393962848298,100.0
592,58.03986068111455,100.0
593,53.36687306501547,100.0
594,57.88989938080495,100.0
595,61.71633126934985,100.0
596,57.67705108359134,100.0
597,60.10545665634675,100.0
598,59.839396284829725,100.0
599,54.169891640866865,100.0
600,55.52438080495355,100.0
601,55.1954334365325,100.0
602,57.58997678018576,100.0
603,58.528444272445824,100.0
604,57.06269349845201,100.0
605,58.48006965944272,100.0
606,54.82294891640867,100.0
607,58.896091331269346,100.0
608,61.04876160990712,100.0
609,56.19678792569659,100.0
610,58.93479102167182,100.0
611,60.240905572755416,100.0
612,62.54837461300309,100.0
613,60.91815015479875,100.0
614,57.20781733746129,100.0
615,60.2263931888545,100.0
616,60.279605263157904,100.0
617,58.01083591331269,100.0
618,59.61203560371517,100.0
619,61.09713622291022,100.0
620,54.48916408668731,100.0
621,56.23548761609908,100.0
622,63.733552631578945,100.0
623,55.13254643962848,100.0
624,56.351586687306494,100.0
625,61.44059597523219,100.0
626,58.697755417956664,100.0
627,60.11996904024767,100.0
628,55.70820433436532,100.0
629,61.21807275541795,100.0
630,64.08184984520122,100.0
631,56.47736068111455,100.0
632,54.2859907120743,100.0
633,60.734326625387,100.0
634,53.574883900928796,100.0
635,63.428792569659436,100.0
636,61.0487616099071,100.0
637,56.477360681114554,100.0
638,61.585719814241486,100.0
639,58.98800309597523,100.0
640,55.96458978328173,100.0
641,61.23742260061919,100.0
642,58.47039473684211,100.0
643,56.34191176470588,100.0
644,58.29624613003096,100.0
645,62.40325077399381,100.0
646,60.70046439628483,100.0
647,60.91815015479876,100.0
648,59.81520897832818,100.0
649,52.61706656346749,100.0
650,56.56927244582044,100.0
651,57.99148606811144,100.0
652,60.74883900928791,100.0
653,55.001934984520126,100.0
654,64.75909442724458,100.0
655,58.19949690402477,100.0
656,59.16215170278638,100.0
657,59.28308823529411,100.0
658,69.1515092879257,100.0
659,58.596168730650156,100.0
660,55.70336687306502,100.0
661,53.15886222910216,100.0
662,56.888544891640855,100.0
663,59.77167182662539,100.0
664,61.803405572755416,100.0
665,60.01354489164087,100.0
666,58.37848297213623,100.0
667,63.65615325077398,100.0
668,60.29895510835913,100.0
669,51.54798761609907,100.0
670,58.53811919504644,100.0
671,54.18440402476781,100.0
672,60.68595201238391,100.0
673,55.751741486068106,100.0
674,60.424729102167184,100.0
675,60.579527863777095,100.0
676,54.247291021671835,100.0
677,62.19523993808049,100.0
678,57.053018575851404,100.0
679,60.03773219814241,100.0
680,59.858746130030966,100.0
681,58.23335913312694,100.0
682,59.04121517027864,100.0
683,61.232585139318886,100.0
684,59.72329721362229,100.0
685,54.33920278637771,100.0
686,60.574690402476776,100.0
687,55.098684210526315,100.0
688,61.17453560371517,100.0
689,60.1344814241486,100.0
690,61.904992260061924,100.0
691,57.69640092879257,100.0
692,58.779992260061924,100.0
693,60.14899380804953,100.0
694,57.401315789473685,100.0
695,56.472523219814256,100.0
696,63.68034055727554,100.0
697,57.923761609907125,100.0
698,57.32875386996904,100.0
699,59.08958978328173,100.0
700,59.6797600619195,100.0
701,61.40673374613004,100.0
702,61.23742260061919,100.0
703,55.31636996904025,100.0
704,62.68382352941177,100.0
705,58.33494582043343,100.0
706,58.910603715170275,100.0
707,60.31346749226006,100.0
708,62.63544891640868,100.0
709,60.057082043343655,100.0
710,61.5421826625387,100.0
711,62.24845201238391,100.0
712,53.154024767801864,100.0
713,58.34945820433436,100.0
714,61.150348297213625,100.0
715,57.93343653250774,100.0
716,59.824883900928796,100.0
717,58.43653250773994,100.0
718,54.49400154798761,100.0
719,59.22987616099071,100.0
720,56.07101393188855,100.0
721,60.4295665634675,100.0
722,61.52767027863777,100.0
723,56.815982972136226,100.0
724,56.67085913312693,100.0
725,56.46768575851394,100.0
726,56.03231424148606,100.0
727,59.20085139318886,100.0
728,53.91834365325078,100.0
729,55.82914086687307,100.0
730,59.887770897832816,100.0
731,55.48084365325078,100.0
732,58.71710526315789,100.0
733,58.504256965944286,100.0
734,58.552631578947356,100.0
735,59.433049535603715,100.0
736,54.494001547987615,100.0
737,59.43788699690403,100.0
738,57.64318885448916,100.0
739,60.60371517027864,100.0
740,56.622484520123834,100.0
741,58.184984520123834,100.0
742,55.49051857585139,100.0
743,59.583010835913306,100.0
744,61.17937306501546,100.0
745,56.06617647058823,100.0
746,57.65770123839009,100.0
747,57.575464396284836,100.0
748,58.2140092879257,100.0
749,57.585139318885446,100.0
750,63.012770897832816,100.0
751,59.12345201238389,100.0
752,55.12287151702785,100.0
753,55.46633126934984,100.0
754,57.943111455108365,100.0
755,62.06462848297213,100.0
756,56.085526315789465,100.0
757,55.388931888544896,100.0
758,59.29760061919505,100.0
759,60.54082817337462,100.0
760,55.529218266253864,100.0
761,53.16369969040248,100.0
762,56.0516640866873,100.0
763,59.215363777089784,100.0
764,60.3328173374613,100.0
765,61.585719814241486,100.0
766,57.81250000000001,100.0
767,60.80688854489164,100.0
768,64.21729876160992,100.0
769,54.92937306501548,100.0
770,57.498065015479874,100.0
771,55.921052631578945,100.0
772,54.79876160990712,100.0
773,59.108939628482965,100.0
774,58.17530959752323,100.0
775,60.105456656346746,100.0
776,60.85526315789473,100.0
777,64.03347523219816,100.0
778,60.947174922600624,100.0
779,55.22445820433437,100.0
780,53.12983746130031,100.0
781,57.15460526315789,100.0
782,59.13796439628483,100.0
783,58.731617647058826,100.0
784,64.65267027863779,100.0
785,61.99690402476781,100.0
786,59.59752321981424,100.0
787,58.60584365325078,100.0
788,56.56927244582044,100.0
789,56.08552631578947,100.0
790,61.82759287925696,100.0
791,58.70743034055727,100.0
792,59.36048761609907,100.0
793,60.424729102167184,100.0
794,59.63622291021672,100.0
795,63.76741486068113,100.0
796,56.622484520123834,100.0
797,58.475232198142415,100.0
798,60.516640866873075,100.0
799,60.79721362229102,100.0
800,59.65073529411765,100.0
801,59.7765092879257,100.0
802,55.15673374613002,100.0
803,56.95626934984519,100.0
804,54.479489164086694,100.0
805,58.891253869969034,100.0
806,60.207043343653254,100.0
807,54.88583591331269,100.0
808,56.951431888544896,100.0
809,57.03850619195047,100.0
810,64.1060371517028,100.0
811,60.352167182662534,100.0
812,58.310758513931894,100.0
813,59.375,100.0
814,62.09365325077398,100.0
815,57.32391640866872,100.0
816,62.60158668730652,100.0
817,61.06811145510836,100.0
818,59.75715944272446,100.0
819,56.03715170278638,100.0
820,61.55185758513932,100.0
821,58.48490712074303,100.0
822,53.487809597523224,100.0
823,58.422020123839,100.0
824,58.997678018575854,100.0
825,55.06965944272445,100.0
826,61.909829721362215,100.0
827,56.18711300309598,100.0
828,59.02186532507739,100.0
829,59.99419504643962,100.0
830,58.24787151702786,100.0
831,56.74342105263158,100.0
832,59.65557275541796,100.0
833,55.398606811145505,100.0
834,54.31017801857585,100.0
835,57.16911764705882,100.0
836,58.765479876160995,100.0
837,60.87461300309598,100.0
838,61.34868421052632,100.0
839,59.33630030959752,100.0
840,57.56095201238389,100.0
841,59.26373839009288,100.0
842,60.81656346749225,100.0
843,58.51876934984519,100.0
844,58.70259287925697,100.0
845,61.600232198142415,100.0
846,55.53405572755418,100.0
847,58.35429566563468,100.0
848,55.553405572755416,100.0
849,63.98993808049536,100.0
850,61.837267801857585,100.0
851,65.53308823529412,100.0
852,63.55456656346749,100.0
853,53.86513157894736,100.0
854,60.13931888544891,100.0
855,59.041215170278626,100.0
856,64.92840557275542,100.0
857,54.91002321981424,100.0
858,55.37441950464397,100.0
859,59.4765866873065,100.0
860,61.18904798761611,100.0
861,55.3937693498452,100.0
862,59.98935758513932,100.0
863,63.515866873065015,100.0
864,61.66795665634675,100.0
865,64.32856037151703,100.0
866,54.49400154798761,100.0
867,52.283281733746136,100.0
868,56.38544891640866,100.0
869,56.58378482972136,100.0
870,55.00193498452012,100.0
871,61.40189628482972,100.0
872,57.55611455108359,100.0
873,57.062693498452006,100.0
874,55.23413312693498,100.0
875,60.37635448916408,100.0
876,58.678405572755416,100.0
877,59.636222910216716,100.0
878,55.301857585139324,100.0
879,54.82778637770898,100.0
880,59.49109907120743,100.0
881,63.93672600619196,100.0
882,63.172407120743024,100.0
883,58.218846749226,100.0
884,57.59965170278637,100.0
885,63.87383900928793,100.0
886,58.37848297213622,100.0
887,64.0141253869969,100.0
888,61.71149380804953,100.0
889,59.25406346749226,100.0
890,63.143382352941174,100.0
891,54.35371517027864,100.0
892,60.618227554179555,100.0
893,60.54082817337461,100.0
894,59.418537151702786,100.0
895,61.900154798761605,100.0
896,57.527089783281724,100.0
897,64.45917182662538,100.0
898,58.22852167182663,100.0
899,59.8297213622291,100.0
900,63.017608359133135,100.0
901,61.522832817337466,100.0
902,51.58668730650156,100.0
903,54.890673374613,100.0
904,62.78057275541795,100.0
905,55.58243034055727,100.0
906,61.23742260061919,100.0
907,56.10003869969041,100.0
908,58.14628482972137,100.0
909,61.23742260061919,100.0
910,60.41021671826625,100.0
911,61.953366873065015,100.0
912,58.96865325077399,100.0
913,58.09307275541795,100.0
914,57.89473684210526,100.0
915,60.79237616099071,100.0
916,62.296826625387,100.0
917,63.936726006191975,100.0
918,62.108165634674926,100.0
919,60.9375,100.0
920,62.79024767801857,100.0
921,63.196594427244584,100.0
922,58.04469814241486,100.0
923,58.22852167182663,100.0
924,55.664667182662534,100.0
925,62.5483746130031,100.0
926,59.34113777089784,100.0
927,55.2921826625387,100.0
928,60.018382352941174,100.0
929,56.1484133126935,100.0
930,59.12828947368422,100.0
931,56.109713622291025,100.0
932,59.68459752321981,100.0
933,56.00812693498452,100.0
934,63.777089783281724,100.0
935,59.61203560371517,100.0
936,60.47310371517028,100.0
937,57.68188854489164,100.0
938,58.63486842105263,100.0
939,62.316176470588225,100.0
940,55.785603715170275,100.0
941,53.94253095975233,100.0
942,57.996323529411775,100.0
943,56.49671052631578,100.0
944,61.11164860681114,100.0
945,64.06733746130031,100.0
946,60.28444272445821,100.0
947,59.781346749226,100.0
948,57.69640092879256,100.0
949,61.82275541795667,100.0
950,62.751547987616114,100.0
951,58.107585139318886,100.0
952,59.36532507739938,100.0
953,59.452399380804955,100.0
954,59.38951238390093,100.0
955,61.42608359133128,100.0
956,51.75116099071207,100.0
957,56.627321981424146,100.0
958,65.2331656346749,100.0
959,57.53192724458204,100.0
960,56.84017027863777,100.0
961,59.728134674922586,100.0
962,55.272832817337466,100.0
963,58.38815789473684,100.0
964,61.49864551083591,100.0
965,59.71845975232197,100.0
966,59.52979876160992,100.0
967,63.42879256965945,100.0
968,59.95549535603715,100.0
969,58.2672213622291,100.0
970,58.499419504643974,100.0
971,57.96729876160991,100.0
972,58.10758513931888,100.0
973,59.312113003095966,100.0
974,58.30108359133127,100.0
975,57.464202786377705,100.0
976,55.74206656346749,100.0
977,56.777283281733745,100.0
978,57.169117647058826,100.0
979,56.38061145510836,100.0
980,58.823529411764696,100.0
981,56.99013157894737,100.0
982,61.42124613003096,100.0
983,56.598297213622295,100.0
984,62.770897832817354,100.0
985,61.150348297213625,100.0
986,60.995549535603715,100.0
987,59.57333591331269,100.0
988,61.70181888544891,100.0
989,59.858746130030966,100.0
990,56.69504643962848,100.0
991,54.6875,100.0
992,57.831849845201226,100.0
993,59.91679566563467,100.0
994,57.83668730650155,100.0
995,60.92298761609907,100.0
996,53.50715944272446,100.0
997,57.739938080495364,100.0
998,56.32256191950464,100.0
999,62.490325077399376,100.0
1000,60.43440402476781,100.0
1001,62.11784055727555,100.0
1002,66.05553405572756,100.0
1003,61.42608359133126,100.0
1004,61.37770897832817,100.0
1005,57.92376160990711,100.0
1006,57.575464396284836,100.0
1007,55.55340557275542,100.0
1008,63.03695820433436,100.0
1009,57.507739938080505,100.0
1010,57.967298761609925,100.0
1011,58.63486842105263,100.0
1012,55.30669504643963,100.0
1013,59.437886996904034,100.0
1014,60.80205108359134,100.0
1015,56.13873839009288,100.0
1016,61.750193498452006,100.0
1017,57.89957430340558,100.0
1018,59.670085139318886,100.0
1019,57.35294117647059,100.0
1020,57.71575077399381,100.0
1021,60.424729102167184,100.0
1022,55.00193498452012,100.0
1023,56.66602167182663,100.0
1024,58.07856037151703,100.0
1025,59.902283281733745,100.0
1026,62.06462848297213,100.0
1027,59.210526315789465,100.0
1028,58.01567337461301,100.0
1029,67.14396284829722,100.0
1030,58.97349071207431,100.0
1031,60.82140092879257,100.0
1032,59.907120743034056,100.0
1033,62.89183436532506,100.0
1034,60.74883900928793,100.0
1035,57.35294117647058,100.0
1036,61.31482198142414,100.0
1037,60.83591331269349,100.0
1038,58.33494582043344,100.0
1039,56.62732198142415,100.0
1040,55.81462848297213,100.0
1041,63.17724458204334,100.0
1042,57.97213622291022,100.0
1043,54.8374613003096,100.0
1044,60.071594427244584,100.0
1045,60.100619195046455,100.0
1046,56.41447368421052,100.0
1047,61.06327399380805,100.0
1048,60.168343653250766,100.0
1049,61.421246130030944,100.0
1050,60.76818885448915,100.0
1051,62.45646284829722,100.0
1052,56.695046439628484,100.0
1053,59.413699690402474,100.0
1054,55.417956656346746,100.0
1055,63.738390092879264,100.0
1056,56.216137770897845,100.0
1057,65.00096749226006,100.0
1058,58.10758513931888,100.0
1059,62.441950464396285,100.0
1060,59.341137770897824,100.0
1061,57.32391640866873,100.0
1062,56.346749226006196,100.0
1063,58.32043343653251,100.0
1064,60.85526315789473,100.0
1065,59.95065789473684,100.0
1066,63.33688080495354,100.0
1067,55.930727554179555,100.0
1068,59.350812693498455,100.0
1069,59.718459752321984,100.0
1070,56.1000386996904,100.0
1071,58.40267027863777,100.0
1072,60.51180340557274,100.0
1073,57.68672600619195,100.0
1074,60.76818885448917,100.0
1075,57.49806501547988,100.0
1076,58.03502321981424,100.0
1077,57.986648606811144,100.0
1078,60.318304953560364,100.0
1079,59.5297987616099,100.0
1080,61.663119195046434,100.0
1081,59.91679566563467,100.0
1082,60.661764705882355,100.0
1083,61.242260061919495,100.0
1084,60.86010061919505,100.0
1085,65.79431114551083,100.0
1086,56.82565789473685,100.0
1087,56.59829721362229,100.0
1088,61.44059597523219,100.0
1089,58.19949690402477,100.0
1090,57.95762383900929,100.0
1091,58.74129256965944,100.0
1092,61.71633126934984,100.0
1093,59.76199690402477,100.0
1094,57.0530185758514,100.0
1095,59.075077399380795,100.0
1096,56.58862229102167,100.0
1097,59.858746130030966,100.0
1098,57.58030185758514,100.0
1099,57.55127708978328,100.0
1100,53.19272445820433,100.0
1101,62.3500386996904,100.0
1102,57.93827399380804,100.0
1103,59.76199690402476,100.0
1104,57.45452786377709,100.0
1105,58.19949690402477,100.0
1106,57.86571207430341,100.0
1107,54.60042569659443,100.0
1108,59.00251547987616,100.0
1109,61.77921826625387,100.0
1110,56.487035603715164,100.0
1111,57.89957430340558,100.0
1112,59.10410216718267,100.0
1113,56.845007739938076,100.0
1114,57.87538699690402,100.0
1115,55.330882352941174,100.0
1116,59.549148606811144,100.0
1117,52.147832817337466,100.0
1118,58.6155185758514,100.0
1119,56.39512383900928,100.0
1120,57.227167182662534,100.0
1121,60.661764705882355,100.0
1122,69.15150928792569,100.0
1123,57.05301857585139,100.0
1124,62.12751547987618,100.0
1125,57.21749226006191,100.0
1126,59.70878482972137,100.0
1127,57.130417956656345,100.0
1128,57.08204334365324,100.0
1129,60.2360681114551,100.0
1130,57.45452786377709,100.0
1131,67.23587461300309,100.0
1132,59.54914860681115,100.0
1133,56.97078173374612,100.0
1134,59.56849845201239,100.0
1135,57.739938080495364,100.0
1136,62.490325077399405,100.0
1137,57.87054953560372,100.0
1138,59.602360681114554,100.0
1139,56.8063080495356,100.0
1140,59.660410216718276,100.0
1141,56.81598297213622,100.0
1142,60.5359907120743,100.0
1143,57.28521671826626,100.0
1144,57.23200464396285,100.0
1145,58.07372291021672,100.0
1146,54.77457430340558,100.0
1147,54.11667956656348,100.0
1148,59.52012383900927,100.0
1149,56.12906346749226,100.0
1150,56.849845201238395,100.0
1151,56.16776315789474,100.0
1152,61.150348297213625,100.0
1153,62.60158668730651,100.0
1154,58.93962848297214,100.0
1155,59.74748452012384,100.0
1156,58.07372291021672,100.0
1157,61.11164860681114,100.0
1158,57.52225232198142,100.0
1159,59.49109907120743,100.0
1160,56.47252321981425,100.0
1161,58.29624613003096,100.0
1162,61.687306501547994,100.0
1163,58.19949690402477,100.0
1164,56.23548761609908,100.0
1165,61.41157120743033,100.0
1166,62.83862229102165,100.0
1167,55.44698142414861,100.0
1168,56.975619195046434,100.0
1169,58.62035603715171,100.0
1170,55.37925696594426,100.0
1171,53.642608359133135,100.0
1172,57.86087461300309,100.0
1173,60.56985294117647,100.0
1174,60.57469040247679,100.0
1175,49.78715170278639,100.0
1176,56.245162538699695,100.0
1177,59.70878482972136,100.0
1178,61.10681114551083,100.0
1179,57.56578947368421,100.0
1180,64.0625,100.0
1181,61.82275541795667,100.0
1182,58.692917956656345,100.0
1183,58.37848297213622,100.0
1184,60.11513157894737,100.0
1185,60.48761609907121,100.0
1186,60.68111455108359,100.0
1187,54.895510835913306,100.0
1188,60.11996904024768,100.0
1189,57.05301857585139,100.0
1190,61.73568111455108,100.0
1191,59.03154024767803,100.0
1192,57.720588235294116,100.0
1193,59.824883900928796,100.0
1194,52.76219040247678,100.0
1195,58.896091331269346,100.0
1196,59.15731424148607,100.0
1197,61.121323529411754,100.0
1198,65.00096749226007,100.0
1199,58.14144736842105,100.0
1200,58.794504643962846,100.0
1201,61.634094427244584,100.0
1202,60.82140092879256,100.0
1203,59.583010835913306,100.0
1204,56.753095975232185,100.0
1205,55.248645510835914,100.0
1206,57.23684210526316,100.0
1207,59.51044891640868,100.0
1208,60.82623839009288,100.0
1209,60.531153250774,100.0
1210,58.963815789473685,100.0
1211,54.015092879256976,100.0
1212,60.898800309597526,100.0
1213,57.88022445820434,100.0
1214,62.27747678018576,100.0
1215,58.78966718266253,100.0
1216,62.93537151702787,100.0
1217,60.724651702786375,100.0
1218,62.591911764705884,100.0
1219,59.220201238390096,100.0
1220,58.794504643962846,100.0
1221,59.54914860681114,100.0
1222,57.18846749226006,100.0
1223,52.29779411764706,100.0
1224,60.80205108359132,100.0
1225,57.26586687306501,100.0
1226,62.32101393188856,100.0
1227,61.31965944272446,100.0
1228,63.0514705882353,100.0
1229,59.95549535603715,100.0
1230,55.437306501547994,100.0
1231,62.41292569659442,100.0
1232,61.590557275541805,100.0
1233,63.419117647058826,100.0
1234,58.692917956656345,100.0
1235,57.80766253869969,100.0
1236,57.159442724458195,100.0
1237,59.26373839009288,100.0
1238,62.843459752322,100.0
1239,56.1532507739938,100.0
1240,58.85255417956657,100.0
1241,60.318304953560364,100.0
1242,52.4187306501548,100.0
1243,57.47871517027864,100.0
1244,59.46691176470589,100.0
1245,57.401315789473685,100.0
1246,61.05359907120743,100.0
1247,59.20568885448917,100.0
1248,63.81578947368422,100.0
1249,62.46613777089783,100.0
1250,61.203560371517035,100.0
1251,57.04334365325077,100.0
1252,59.78618421052632,100.0
1253,66.56346749226006,100.0
1254,59.52012383900928,100.0
1255,59.24922600619195,100.0
1256,58.789667182662534,100.0
1257,58.673568111455104,100.0
1258,60.3811919504644,100.0
1259,61.02457430340558,100.0
1260,61.40673374613002,100.0
1261,59.65557275541795,100.0
1262,60.9375,100.0
1263,57.498065015479874,100.0
1264,62.5483746130031,100.0
1265,60.44407894736843,100.0
1266,59.72813467492259,100.0
1267,60.6424148606811,100.0
1268,57.149767801857585,100.0
1269,59.97000773993809,100.0
1270,57.420665634674926,100.0
1271,62.8095975232198,100.0
1272,58.18014705882353,100.0
1273,63.69001547987615,100.0
1274,57.319078947368425,100.0
1275,56.00328947368422,100.0
1276,57.48355263157894,100.0
1277,56.443498452012385,100.0
1278,59.56366099071207,100.0
1279,61.232585139318886,100.0
1280,62.862809597523224,100.0
1281,56.346749226006196,100.0
1282,59.466911764705884,100.0
1283,62.27263931888547,100.0
1284,57.54643962848297,100.0
1285,58.35429566563466,100.0
1286,60.06191950464397,100.0
1287,63.29818111455109,100.0
1288,58.83320433436533,100.0
1289,60.55050309597523,100.0
1290,56.09520123839008,100.0
1291,58.881578947368425,100.0
1292,65.38312693498452,100.0
1293,61.42124613003096,100.0
1294,59.41853715170279,100.0
1295,63.87867647058823,100.0
1296,58.6203560371517,100.0
1297,62.05979102167184,100.0
1298,56.622484520123834,100.0
1299,59.85874613003096,100.0
1300,59.0218653250774,100.0
1301,58.82836687306502,100.0
1302,62.853134674922586,100.0
1303,62.38390092879256,100.0
1304,53.744195046439636,100.0
1305,59.650735294117645,100.0
1306,60.26993034055728,100.0
1307,58.731617647058826,100.0
1308,59.51044891640866,100.0
1309,53.76838235294118,100.0
1310,56.695046439628484,100.0
1311,52.61222910216719,100.0
1312,56.45801083591331,100.0
1313,61.682469040247696,100.0
1314,58.039860681114554,100.0
1315,62.97407120743034,100.0
1316,58.39299535603715,100.0
1317,59.94098297213622,100.0
1318,56.48219814241485,100.0
1319,56.825657894736835,100.0
1320,57.74477554179567,100.0
1321,64.74458204334366,100.0
1322,59.75715944272446,100.0
1323,57.19814241486068,100.0
1324,62.34520123839008,100.0
1325,57.81733746130031,100.0
1326,57.096555727554176,100.0
1327,60.1780185758514,100.0
1328,58.24787151702787,100.0
1329,60.419891640866865,100.0
1330,60.48761609907121,100.0
1331,57.78347523219813,100.0
1332,58.19465944272445,100.0
1333,57.08204334365324,100.0
1334,58.62519349845201,100.0
1335,58.039860681114554,100.0
1336,55.82430340557275,100.0
1337,60.695626934984524,100.0
1338,55.75174148606811,100.0
1339,63.63196594427244,100.0
1340,62.00174148606811,100.0
1341,57.78347523219814,100.0
1342,62.72252321981424,100.0
1343,58.13660990712075,100.0
1344,54.276315789473685,100.0
1345,60.15383126934985,100.0
1346,58.968653250774,100.0
1347,58.68324303405572,100.0
1348,56.66602167182663,100.0
1349,60.12480650154799,100.0
1350,54.63912538699691,100.0
1351,58.422020123839,100.0
1352,57.71575077399381,100.0
1353,55.07449690402477,100.0
1354,54.08281733746131,100.0
1355,56.86435758513932,100.0
1356,61.12616099071209,100.0
1357,61.09713622291021,100.0
1358,57.22716718266254,100.0
1359,57.130417956656345,100.0
1360,63.365905572755416,100.0
1361,59.75715944272446,100.0
1362,55.195433436532504,100.0
1363,59.452399380804955,100.0
1364,58.95414086687306,100.0
1365,57.62867647058823,100.0
1366,59.578173374613,100.0
1367,56.37093653250774,100.0
1368,60.97619969040249,100.0
1369,61.11648606811147,100.0
1370,58.18014705882353,100.0
1371,56.21613777089783,100.0
1372,59.7765092879257,100.0
1373,53.99574303405572,100.0
1374,58.20917182662539,100.0
1375,57.95278637770898,100.0
1376,61.590557275541805,100.0
1377,56.73858359133128,100.0
1378,62.78057275541795,100.0
1379,58.659055727554176,100.0
1380,60.92298761609907,100.0
1381,61.4309210526316,100.0
1382,55.674342105263165,100.0
1383,57.64318885448917,100.0
1384,59.466911764705884,100.0
1385,53.00406346749226,100.0
1386,59.77167182662539,100.0
1387,59.80069659442724,100.0
1388,61.57120743034055,100.0
1389,57.8608746130031,100.0
1390,58.794504643962846,100.0
1391,58.77999226006191,100.0
1392,60.80688854489164,100.0
1393,57.991486068111456,100.0
1394,57.76412538699691,100.0
1395,60.71981424148606,100.0
1396,59.4862616099071,100.0
1397,62.287151702786375,100.0
1398,58.43169504643963,100.0
1399,62.804760061919495,100.0
1400,60.913312693498455,100.0
1401,59.94098297213622,100.0
1402,59.17666408668731,100.0
1403,57.67705108359132,100.0
1404,60.274767801857585,100.0
1405,61.27128482972136,100.0
1406,61.595394736842096,100.0
1407,53.69098297213623,100.0
1408,56.29353715170278,100.0
1409,58.954140866873054,100.0
1410,60.511803405572756,100.0
1411,56.675696594427244,100.0
1412,56.390286377708975,100.0
1413,58.862229102167184,100.0
1414,59.113777089783284,100.0
1415,55.877515479876166,100.0
1416,57.62867647058823,100.0
1417,58.47039473684211,100.0
1418,60.5843653250774,100.0
1419,55.616292569659436,100.0
1420,57.783475232198136,100.0
1421,56.951431888544896,100.0
1422,63.57391640866872,100.0
1423,61.69214396284831,100.0
1424,57.444852941176464,100.0
1425,61.22291021671826,100.0
1426,57.87538699690402,100.0
1427,56.93691950464397,100.0
1428,55.98877708978328,100.0
1429,54.0296052631579,100.0
1430,61.866292569659436,100.0
1431,58.80417956656347,100.0
1432,60.61339009287925,100.0
1433,59.51044891640866,100.0
1434,62.741873065015476,100.0
1435,55.55340557275542,100.0
1436,55.4953560371517,100.0
1437,60.46826625386998,100.0
1438,60.29411764705884,100.0
1439,61.96304179566564,100.0
1440,57.33359133126935,100.0
1441,58.15595975232198,100.0
1442,59.91195820433437,100.0
1443,61.875967492260074,100.0
1444,57.44485294117648,100.0
1445,55.93072755417956,100.0
1446,59.162151702786375,100.0
1447,60.82623839009288,100.0
1448,56.79663312693498,100.0
1449,59.62654798761609,100.0
1450,62.490325077399376,100.0
1451,58.06888544891642,100.0
1452,56.46284829721361,100.0
1453,61.687306501548,100.0
1454,60.61822755417957,100.0
1455,56.41447368421053,100.0
1456,60.594040247678016,100.0
1457,60.724651702786375,100.0
1458,58.891253869969034,100.0
1459,60.627902476780186,100.0
1460,62.89667182662539,100.0
1461,56.75309597523219,100.0
1462,54.213428792569665,100.0
1463,56.3032120743034,100.0
1464,60.26025541795667,100.0
1465,55.82430340557275,100.0
1466,57.841524767801864,100.0
1467,60.85526315789473,100.0
1468,54.798761609907125,100.0
1469,55.05514705882353,100.0
1470,56.109713622291025,100.0
1471,55.64531733746131,100.0
1472,59.50077399380805,100.0
1473,55.403444272445824,100.0
1474,60.97136222910217,100.0
1475,57.87538699690403,100.0
1476,60.386029411764696,100.0
1477,56.796633126934985,100.0
1478,58.19465944272446,100.0
1479,58.0640479876161,100.0
1480,59.13796439628484,100.0
1481,56.448335913312704,100.0
1482,61.967879256965944,100.0
1483,54.81811145510836,100.0
1484,62.12267801857586,100.0
1485,59.171826625387,100.0
1486,61.7405185758514,100.0
1487,59.85874613003096,100.0
1488,61.56636996904026,100.0
1489,56.99980650154799,100.0
1490,58.881578947368425,100.0
1491,58.48490712074303,100.0
1492,52.283281733746136,100.0
1493,59.37983746130031,100.0
1494,61.493808049535616,100.0
1495,61.963041795665625,100.0
1496,59.263738390092875,100.0
1497,55.55340557275542,100.0
1498,54.058630030959755,100.0
1499,57.227167182662534,100.0
1500,62.41292569659442,100.0
1501,56.69504643962847,100.0
1502,55.73722910216719,100.0
1503,60.04740712074304,100.0
1504,55.92589009287926,100.0
1505,56.980456656346746,100.0
1506,59.01702786377708,100.0
1507,58.85255417956656,100.0
1508,59.960332817337466,100.0
1509,58.03502321981425,100.0
1510,62.48065015479876,100.0
1511,57.483552631578945,100.0
1512,56.97078173374613,100.0
1513,60.652089783281724,100.0
1514,58.94930340557275,100.0
1515,52.34133126934984,100.0
1516,59.85390866873065,100.0
1517,60.64725232198142,100.0
1518,56.443498452012385,100.0
1519,63.133707430340564,100.0
1520,62.79024767801858,100.0
1521,58.83320433436533,100.0
1522,54.140866873065015,100.0
1523,56.38544891640867,100.0
1524,59.93614551083591,100.0
1525,60.86010061919504,100.0
1526,58.55263157894737,100.0
1527,62.296826625387,100.0
1528,56.293537151702786,100.0
1529,63.496517027863774,100.0
1530,60.91815015479875,100.0
1531,60.60371517027864,100.0
1532,56.61764705882353,100.0
1533,55.74206656346749,100.0
1534,57.26586687306502,100.0
1535,58.48974458204334,100.0
1536,59.413699690402474,100.0
1537,63.496517027863774,100.0
1538,58.85739164086688,100.0
1539,55.58243034055728,100.0
1540,61.953366873065015,100.0
1541,53.154024767801864,100.0
1542,59.133126934984524,100.0
1543,55.098684210526315,100.0
1544,55.65499226006192,100.0
1545,55.81462848297214,100.0
1546,59.22020123839009,100.0
1547,62.46613777089783,100.0
1548,59.882933436532504,100.0
1549,61.6921439628483,100.0
1550,53.265286377708975,100.0
1551,57.85119969040247,100.0
1552,54.73587461300309,100.0
1553,63.61745356037151,100.0
1554,61.96787925696596,100.0
1555,59.28308823529412,100.0
1556,54.34404024767803,100.0
1557,61.32449690402477,100.0
1558,56.97561919504645,100.0
1559,57.86571207430341,100.0
1560,59.345975232198136,100.0
1561,59.99419504643963,100.0
1562,59.65557275541795,100.0
1563,57.333591331269346,100.0
1564,62.291989164086694,100.0
1565,54.169891640866865,100.0
1566,59.936145510835914,100.0
1567,59.23471362229102,100.0
1568,61.82759287925696,100.0
1569,61.343846749226,100.0
1570,54.79876160990711,100.0
1571,59.476586687306515,100.0
1572,56.49187306501548,100.0
1573,56.91756965944272,100.0
1574,58.54779411764706,100.0
1575,60.942337461300305,100.0
1576,56.02263931888545,100.0
1577,61.329334365325074,100.0
1578,59.79585913312693,100.0
1579,57.92376160990713,100.0
1580,60.48277863777089,100.0
1581,60.531153250774,100.0
1582,56.6031346749226,100.0
1583,62.9015092879257,100.0
1584,61.05359907120743,100.0
1585,58.75580495356037,100.0
1586,61.039086687306494,100.0
1587,55.16640866873065,100.0
1588,60.90363777089783,100.0
1589,59.650735294117645,100.0
1590,57.56578947368422,100.0
1591,55.45665634674922,100.0
1592,62.23393962848298,100.0
1593,56.77728328173374,100.0
1594,52.588041795665646,100.0
1595,56.21613777089783,100.0
1596,61.817917956656345,100.0
1597,59.8780959752322,100.0
1598,58.097910216718276,100.0
1599,57.62383900928793,100.0
1600,59.74748452012384,100.0
1601,54.43595201238389,100.0
1602,57.236842105263165,100.0
1603,59.33146284829722,100.0
1604,60.92782507739939,100.0
1605,61.83243034055728,100.0
1606,55.52921826625387,100.0
1607,62.809597523219814,100.0
1608,56.511222910216716,100.0
1609,59.050890092879264,100.0
1610,57.96729876160991,100.0
1611,56.28386222910217,100.0
1612,63.75773993808049,100.0
1613,60.71013931888544,100.0
1614,60.59404024767803,100.0
1615,57.401315789473685,100.0
1616,51.41737616099072,100.0
1617,53.2265866873065,100.0
1618,64.3188854489164,100.0
1619,58.925116099071204,100.0
1620,63.820626934984524,100.0
1621,62.03560371517028,100.0
1622,60.47310371517028,100.0
1623,60.1296439628483,100.0
1624,62.18072755417957,100.0
1625,58.054373065015476,100.0
1626,61.38738390092879,100.0
1627,60.06675696594427,100.0
1628,59.12828947368421,100.0
1629,56.95626934984519,100.0
1630,61.41640866873065,100.0
1631,61.256772445820445,100.0
1632,55.97910216718267,100.0
1633,59.39918730650155,100.0
1634,59.41369969040248,100.0
1635,64.65267027863777,100.0
1636,55.983939628482965,100.0
1637,57.967298761609904,100.0
1638,59.384674922600624,100.0
1639,52.70414086687306,100.0
1640,60.04256965944272,100.0
1641,56.1967879256966,100.0
1642,60.92782507739939,100.0
1643,60.26993034055728,100.0
1644,57.37712848297214,100.0
1645,63.17724458204333,100.0
1646,56.975619195046455,100.0
1647,57.94794891640868,100.0
1648,59.23955108359133,100.0
1649,59.96517027863777,100.0
1650,53.50232198142414,100.0
1651,54.948722910216716,100.0
1652,61.12616099071209,100.0
1653,58.93479102167183,100.0
1654,55.63080495356038,100.0
1655,57.88022445820434,100.0
1656,62.57256191950464,100.0
1657,57.82701238390092,100.0
1658,55.02128482972135,100.0
1659,59.98935758513932,100.0
1660,60.41505417956657,100.0
1661,61.06811145510836,100.0
1662,57.749613003095966,100.0
1663,56.27418730650155,100.0
1664,59.1234520123839,100.0
1665,58.70259287925696,100.0
1666,55.548568111455104,100.0
1667,60.47310371517028,100.0
1668,56.09036377708979,100.0
1669,60.58920278637771,100.0
1670,58.325270897832816,100.0
1671,57.69640092879257,100.0
1672,59.83939628482973,100.0
1673,61.90982972136223,100.0
1674,63.01277089783283,100.0
1675,62.73703560371517,100.0
1676,58.838041795665625,100.0
1677,59.723297213622295,100.0
1678,56.545085139318886,100.0
1679,61.488970588235304,100.0
1680,57.75445046439628,100.0
1681,59.771671826625386,100.0
1682,61.72600619195047,100.0
1683,61.996904024767794,100.0
1684,62.1468653250774,100.0
1685,52.4138931888545,100.0
1686,55.4421439628483,100.0
1687,56.66118421052631,100.0
1688,61.39705882352941,100.0
1689,61.503482972136226,100.0
1690,57.62383900928793,100.0
1691,59.67492260061918,100.0
1692,59.413699690402474,100.0
1693,59.73780959752321,100.0
1694,57.028831269349844,100.0
1695,61.18904798761609,100.0
1696,59.96033281733746,100.0
1697,59.500773993808046,100.0
1698,64.34307275541795,100.0
1699,54.19407894736842,100.0
1700,60.15866873065015,100.0
1701,62.142027863777095,100.0
1702,57.29489164086689,100.0
1703,62.32585139318885,100.0
1704,59.171826625387006,100.0
1705,60.052244582043336,100.0
1706,59.80553405572755,100.0
1707,62.01141640866872,100.0
1708,62.79024767801858,100.0
1709,55.432469040247675,100.0
1710,63.032120743034056,100.0
1711,57.681888544891635,100.0
1712,55.31153250773994,100.0
1713,60.608552631578945,100.0
1714,60.62306501547987,100.0
1715,57.84636222910217,100.0
1716,62.64028637770897,100.0
1717,59.69427244582043,100.0
1718,56.03231424148606,100.0
1719,61.213235294117645,100.0
1720,58.19465944272446,100.0
1721,55.567917956656345,100.0
1722,56.54024767801858,100.0
1723,64.53173374613004,100.0
1724,54.29082817337461,100.0
1725,59.08958978328173,100.0
1726,57.60448916408668,100.0
1727,59.645897832817326,100.0
1728,58.460719814241486,100.0
1729,57.93343653250774,100.0
1730,55.166408668730654,100.0
1731,61.871130030959755,100.0
1732,53.120162538699695,100.0
1733,56.491873065015476,100.0
1734,60.9858746130031,100.0
1735,60.569852941176485,100.0
1736,64.7107198142415,100.0
1737,59.66524767801857,100.0
1738,61.03908668730651,100.0
1739,60.11996904024767,100.0
1740,63.815789473684205,100.0
1741,60.92298761609907,100.0
1742,60.09094427244582,100.0
1743,58.15112229102168,100.0
1744,56.69504643962848,100.0
1745,61.266447368421055,100.0
1746,59.11377708978328,100.0
1747,56.93691950464397,100.0
1748,64.03831269349845,100.0
1749,56.29353715170279,100.0
1750,63.08049535603715,100.0
1751,59.52979876160991,100.0
1752,59.89744582043343,100.0
1753,59.133126934984524,100.0
1754,55.432469040247675,100.0
1755,58.509094427244584,100.0
1756,64.53657120743034,100.0
1757,61.842105263157904,100.0
1758,58.44136996904024,100.0
1759,59.23955108359133,100.0
1760,56.91756965944273,100.0
1761,56.94175696594427,100.0
1762,60.598877708978335,100.0
1763,54.629450464396285,100.0
1764,56.01296439628482,100.0
1765,54.11667956656348,100.0
1766,55.43246904024768,100.0
1767,59.45723684210526,100.0
1768,56.777283281733745,100.0
1769,62.64028637770897,100.0
1770,53.9812306501548,100.0
1771,61.469620743034056,100.0
1772,57.9624613003096,100.0
1773,54.136029411764696,100.0
1774,55.03095975232198,100.0
1775,59.60236068111456,100.0
1776,56.92240712074303,100.0
1777,59.48626160990712,100.0
1778,60.86493808049536,100.0
1779,54.15054179566564,100.0
1780,60.76335139318885,100.0
1781,60.5843653250774,100.0
1782,59.834558823529406,100.0
1783,59.41369969040248,100.0
1784,60.3811919504644,100.0
1785,55.63080495356037,100.0
1786,57.59481424148607,100.0
1787,58.55263157894737,100.0
1788,58.296246130030966,100.0
1789,57.84152476780186,100.0
1790,54.914860681114554,100.0
1791,58.34945820433436,100.0
1792,56.346749226006196,100.0
1793,53.62325851393188,100.0
1794,60.052244582043336,100.0
1795,58.6203560371517,100.0
1796,52.80089009287926,100.0
1797,53.50715944272446,100.0
1798,54.227941176470594,100.0
1799,63.24496904024768,100.0
1800,57.10623065015481,100.0
1801,59.9796826625387,100.0
1802,54.89551083591331,100.0
1803,52.94117647058823,100.0
1804,56.428986068111456,100.0
1805,57.11590557275542,100.0
1806,60.690789473684205,100.0
1807,58.204334365325074,100.0
1808,58.755804953560364,100.0
1809,56.82082043343653,100.0
1810,60.21188080495357,100.0
1811,61.66311919504645,100.0
1812,59.17666408668731,100.0
1813,58.6155185758514,100.0
1814,56.03231424148607,100.0
1815,61.7453560371517,100.0
1816,59.22020123839009,100.0
1817,61.16002321981424,100.0
1818,57.91408668730651,100.0
1819,56.01296439628483,100.0
1820,59.9796826625387,100.0
1821,61.116486068111456,100.0
1822,55.78560371517028,100.0
1823,59.379837461300305,100.0
1824,55.921052631578945,100.0
1825,62.0984907120743,100.0
1826,57.7641253869969,100.0
1827,60.119969040247675,100.0
1828,64.69620743034056,100.0
1829,60.98103715170278,100.0
1830,57.83184984520125,100.0
1831,59.77167182662539,100.0
1832,61.4938080495356,100.0
1833,56.801470588235304,100.0
1834,59.98935758513932,100.0
1835,61.01006191950464,100.0
1836,53.37654798761609,100.0
1837,57.870549535603715,100.0
1838,60.071594427244584,100.0
1839,60.361842105263165,100.0
1840,58.755804953560364,100.0
1841,59.38951238390092,100.0
1842,63.46749226006191,100.0
1843,64.15441176470587,100.0
1844,59.58301083591331,100.0
1845,61.62925696594428,100.0
1846,54.65363777089783,100.0
1847,63.32236842105265,100.0
1848,62.30650154798761,100.0
1849,58.388157894736835,100.0
1850,53.531346749226,100.0
1851,57.401315789473685,100.0
1852,61.71149380804953,100.0
1853,57.38196594427245,100.0
1854,58.34945820433436,100.0
1855,62.53386222910217,100.0
1856,60.11996904024767,100.0
1857,61.08262383900929,100.0
1858,60.45375386996904,100.0
1859,59.13312693498452,100.0
1860,56.73858359133128,100.0
1861,57.35777863777089,100.0
1862,59.989357585139324,100.0
1863,60.03289473684211,100.0
1864,59.94582043343653,100.0
1865,57.449690402476776,100.0
1866,62.53386222910217,100.0
1867,63.399767801857585,100.0
1868,57.3094040247678,100.0
1869,59.68943498452012,100.0
1870,60.53115325077398,100.0
1871,58.093072755417964,100.0
1872,62.475812693498455,100.0
1873,54.09732972136223,100.0
1874,61.10681114551083,100.0
1875,58.27689628482971,100.0
1876,54.60042569659443,100.0
1877,58.52360681114551,100.0
1878,64.9187306501548,100.0
1879,60.56017801857586,100.0
1880,61.774380804953566,100.0
1881,60.88428792569659,100.0
1882,57.6625386996904,100.0
1883,58.91060371517028,100.0
1884,58.015673374613,100.0
1885,58.1656346749226,100.0
1886,60.96168730650156,100.0
1887,60.41021671826626,100.0
1888,56.898219814241486,100.0
1889,56.76760835913313,100.0
1890,60.58920278637771,100.0
1891,60.45859133126934,100.0
1892,58.56714396284829,100.0
1893,58.552631578947356,100.0
1894,61.35835913312694,100.0
1895,61.551857585139324,100.0
1896,61.934017027863774,100.0
1897,62.509674922600624,100.0
1898,57.870549535603715,100.0
1899,61.61474458204334,100.0
1900,61.3390092879257,100.0
1901,60.79721362229103,100.0
1902,59.834558823529406,100.0
1903,56.41447368421053,100.0
1904,57.62383900928793,100.0
1905,60.023219814241486,100.0
1906,56.482198142414866,100.0
1907,57.74477554179566,100.0
1908,59.04121517027863,100.0
1909,54.79392414860681,100.0
1910,59.23471362229103,100.0
1911,62.03560371517028,100.0
1912,58.557469040247675,100.0
1913,56.94659442724458,100.0
1914,55.350232198142415,100.0
1915,54.71652476780186,100.0
1916,57.435178018575854,100.0
1917,60.352167182662534,100.0
1918,65.21381578947367,100.0
1919,53.00890092879257,100.0
1920,58.49941950464396,100.0
1921,57.14009287925697,100.0
1922,53.39589783281733,100.0
1923,56.786958204334354,100.0
1924,63.365905572755416,100.0
1925,56.5499226006192,100.0
1926,57.09171826625387,100.0
1927,61.875967492260074,100.0
1928,58.82352941176471,100.0
1929,59.90712074303406,100.0
1930,56.60313467492261,100.0
1931,59.65557275541796,100.0
1932,61.900154798761605,100.0
1933,58.12693498452012,100.0
1934,57.47871517027863,100.0
1935,56.8546826625387,100.0
1936,62.58223684210526,100.0
1937,59.563660990712066,100.0
1938,63.448142414860676,100.0
1939,60.16834365325078,100.0
1940,59.84907120743035,100.0
1941,55.563080495356026,100.0
1942,60.04740712074304,100.0
1943,61.16002321981424,100.0
1944,58.55746904024768,100.0
1945,58.79450464396285,100.0
1946,56.87403250773994,100.0
1947,56.21130030959753,100.0
1948,56.87403250773994,100.0
1949,59.88777089783281,100.0
1950,59.14280185758515,100.0
1951,60.55050309597523,100.0
1952,65.51857585139318,100.0
1953,54.98258513931889,100.0
1954,58.305921052631575,100.0
1955,58.3639705882353,100.0
1956,54.27147832817337,100.0
1957,59.70878482972136,100.0
1958,55.30669504643963,100.0
1959,60.26993034055728,100.0
1960,58.29624613003096,100.0
1961,59.33630030959752,100.0
1962,58.60584365325079,100.0
1963,58.21884674922601,100.0
1964,60.41021671826626,100.0
1965,57.773800309597526,100.0
1966,59.35565015479875,100.0
1967,57.333591331269346,100.0
1968,60.052244582043336,100.0
1969,59.73780959752322,100.0
1970,54.96807275541796,100.0
1971,57.028831269349844,100.0
1972,59.08475232198142,100.0
1973,61.585719814241486,100.0
1974,55.587267801857585,100.0
1975,59.01219040247678,100.0
1976,61.169698142414866,100.0
1977,62.68382352941177,100.0
1978,63.08049535603715,100.0
1979,59.28792569659443,100.0
1980,58.35429566563467,100.0
1981,60.49245356037152,100.0
1982,61.08262383900929,100.0
1983,56.994969040247675,100.0
1984,61.547020123839005,100.0
1985,57.889899380804955,100.0
1986,61.914667182662534,100.0
1987,60.62306501547988,100.0
1988,63.92705108359134,100.0
1989,54.66331269349845,100.0
1990,55.95007739938081,100.0
1991,59.42821207430341,100.0
1992,56.89338235294117,100.0
1993,59.74748452012384,100.0
1994,60.06675696594428,100.0
1995,61.150348297213625,100.0
1996,60.61822755417957,100.0
1997,61.266447368421055,100.0
1998,60.83107585139319,100.0
1999,59.35565015479875,100.0
2000,57.38196594427245,100.0
2001,62.9595588235294,100.0
2002,62.5483746130031,100.0
2003,58.871904024767794,100.0
2004,60.31830495356038,100.0
2005,56.158088235294116,100.0
2006,59.35081269349844,100.0
2007,57.77380030959752,100.0
2008,55.84365325077399,100.0
2009,55.35506965944273,100.0
2010,58.67840557275542,100.0
2011,64.98161764705883,100.0
2012,55.70820433436533,100.0
2013,55.800116099071204,100.0
2014,56.656346749226,100.0
2015,56.10487616099071,100.0
2016,58.997678018575854,100.0
2017,63.81095201238389,100.0
2018,63.486842105263165,100.0
2019,53.908668730650156,100.0
2020,57.59481424148606,100.0
2021,55.32604489164087,100.0
2022,57.88506191950464,100.0
2023,62.761222910216716,100.0
2024,57.11590557275542,100.0
2025,58.84771671826625,100.0
2026,55.44214396284829,100.0
2027,60.782701238390096,100.0
2028,58.707430340557266,100.0
2029,56.10971362229102,100.0
2030,55.54856811145512,100.0
2031,57.31907894736842,100.0
2032,60.845588235294116,100.0
2033,60.74400154798762,100.0
2034,57.735100619195045,100.0
2035,58.291408668730654,100.0
2036,56.3032120743034,100.0
2037,56.18227554179566,100.0
2038,56.40963622291022,100.0
2039,57.79798761609907,100.0
2040,55.99361455108358,100.0
2041,63.72387770897832,100.0
2042,59.91195820433436,100.0
2043,58.13177244582043,100.0
2044,62.01141640866874,100.0
2045,59.98935758513932,100.0
2046,59.27341331269349,100.0
2047,61.66311919504645,100.0
2048,58.90092879256966,100.0
2049,58.05437306501549,100.0
2050,57.8608746130031,100.0
2051,57.715750773993804,100.0
2052,59.43304953560373,100.0
2053,59.01702786377709,100.0
2054,58.31075851393188,100.0
2055,57.0530185758514,100.0
2056,62.86280959752321,100.0
2057,59.87325851393189,100.0
2058,57.84636222910216,100.0
2059,62.490325077399376,100.0
2060,58.05921052631579,100.0
2061,63.14338235294119,100.0
2062,63.65615325077398,100.0
2063,56.55959752321981,100.0
2064,61.179373065015476,100.0
2065,55.26315789473684,100.0
2066,56.57894736842106,100.0
2067,54.36339009287926,100.0
2068,59.04605263157894,100.0
2069,61.45027089783283,100.0
2070,57.86087461300309,100.0
2071,57.88989938080495,100.0
2072,61.329334365325074,100.0
2073,61.43092105263158,100.0
2074,59.694272445820424,100.0
2075,56.62248452012384,100.0
2076,57.0094814241486,100.0
2077,58.15112229102168,100.0
2078,55.026122291021665,100.0
2079,65.7749613003096,100.0
2080,61.7453560371517,100.0
2081,60.63273993808049,100.0
2082,60.23606811145511,100.0
2083,57.85603715170279,100.0
2084,60.27960526315789,100.0
2085,60.70046439628483,100.0
2086,55.437306501547994,100.0
2087,60.879450464396285,100.0
2088,61.31965944272445,100.0
2089,60.49245356037152,100.0
2090,57.69156346749226,100.0
2091,58.18498452012384,100.0
2092,58.42685758513932,100.0
2093,57.391640866873054,100.0
2094,55.30669504643962,100.0
2095,67.19233746130031,100.0
2096,59.59752321981425,100.0
2097,60.16350619195046,100.0
2098,55.335719814241486,100.0
2099,55.219620743034056,100.0
2100,56.25000000000001,100.0
2101,59.215363777089784,100.0
2102,57.710913312693485,100.0
2103,61.343846749226,100.0
2104,58.900928792569665,100.0
2105,59.761996904024784,100.0
2106,49.733939628482965,100.0
2107,60.01354489164086,100.0
2108,57.5125773993808,100.0
2109,65.80882352941175,100.0
2110,59.83455882352941,100.0
2111,57.71091331269349,100.0
2112,59.38951238390093,100.0
2113,55.432469040247675,100.0
2114,58.775154798761605,100.0
2115,58.77515479876161,100.0
2116,56.63699690402477,100.0
2117,58.87190402476781,100.0
2118,59.44272445820434,100.0
2119,56.28386222910217,100.0
2120,54.96807275541795,100.0
2121,60.64725232198143,100.0
2122,59.244388544891635,100.0
2123,62.60642414860681,100.0
2124,57.56095201238391,100.0
2125,58.88641640866873,100.0
2126,60.03773219814242,100.0
2127,57.26586687306502,100.0
2128,59.52496130030959,100.0
2129,59.370162538699695,100.0
2130,58.91544117647058,100.0
2131,58.66389318885449,100.0
2132,62.23877708978327,100.0
2133,59.73297213622291,100.0
2134,61.45994582043345,100.0
2135,60.4392414860681,100.0
2136,60.56985294117647,100.0
2137,58.50425696594427,100.0
2138,53.07178792569659,100.0
2139,53.284636222910216,100.0
2140,51.33997678018576,100.0
2141,60.71497678018576,100.0
2142,61.22291021671826,100.0
2143,61.47445820433436,100.0
2144,59.33630030959751,100.0
2145,60.55534055727554,100.0
2146,53.42492260061919,100.0
2147,59.55398606811145,100.0
2148,58.46071981424149,100.0
2149,57.53192724458205,100.0
2150,53.0766253869969,100.0
2151,60.057082043343655,100.0
2152,57.65286377708979,100.0
2153,53.72000773993808,100.0
2154,57.90441176470589,100.0
2155,61.19388544891641,100.0
2156,55.62596749226006,100.0
2157,61.566369969040274,100.0
2158,60.308630030959755,100.0
2159,59.20568885448916,100.0
2160,55.89202786377709,100.0
2161,58.455882352941174,100.0
2162,55.282507739938076,100.0
2163,56.283862229102176,100.0
2164,59.46691176470588,100.0
2165,57.86087461300309,100.0
2166,59.152476780185765,100.0
2167,65.67337461300309,100.0
2168,57.11590557275542,100.0
2169,62.26780185758515,100.0
2170,60.5843653250774,100.0
2171,60.47310371517028,100.0
2172,57.31424148606811,100.0
2173,57.42550309597522,100.0
2174,58.73161764705883,100.0
2175,61.66795665634675,100.0
2176,62.799922600619176,100.0
2177,61.85178018575851,100.0
2178,59.55882352941177,100.0
2179,57.98181114551083,100.0
2180,57.03850619195047,100.0
2181,59.1766640866873,100.0
2182,58.4655572755418,100.0
2183,54.963235294117645,100.0
2184,61.6486068111455,100.0
2185,62.490325077399376,100.0
2186,54.58107585139318,100.0
2187,58.48490712074303,100.0
2188,56.88854489164086,100.0
2189,61.04392414860681,100.0
2190,62.38390092879257,100.0
2191,57.23200464396285,100.0
2192,61.929179566563455,100.0
2193,60.76818885448917,100.0
2194,59.31211300309597,100.0
2195,58.75580495356037,100.0
2196,62.38873839009288,100.0
2197,57.788312693498455,100.0
2198,58.18014705882353,100.0
2199,58.65905572755418,100.0
2200,62.591911764705884,100.0
2201,58.11242260061919,100.0
2202,58.209171826625386,100.0
2203,57.79798761609907,100.0
2204,57.294891640866865,100.0
2205,60.95684984520124,100.0
2206,58.96865325077399,100.0
2207,56.25,100.0
2208,54.445626934984524,100.0
2209,60.35700464396285,100.0
2210,54.1892414860681,100.0
2211,56.458010835913306,100.0
2212,56.50638544891641,100.0
2213,55.78076625386997,100.0
2214,60.173181114551085,100.0
2215,63.346555727554176,100.0
2216,57.348103715170275,100.0
2217,57.25135448916408,100.0
2218,63.66582817337461,100.0
2219,60.153831269349844,100.0
2220,54.85197368421053,100.0
2221,65.82817337461299,100.0
2222,58.15595975232198,100.0
2223,59.723297213622295,100.0
2224,58.92995356037152,100.0
2225,58.27689628482972,100.0
2226,64.79779411764704,100.0
2227,49.81617647058823,100.0
2228,59.621710526315795,100.0
2229,63.786764705882355,100.0
2230,57.638351393188856,100.0
2231,60.54566563467491,100.0
2232,61.66311919504645,100.0
2233,60.337654798761605,100.0
2234,55.098684210526315,100.0
2235,58.72194272445821,100.0
2236,68.3001160990712,100.0
2237,61.23742260061919,100.0
2238,62.03076625386996,100.0
2239,61.25677244582043,100.0
2240,61.45510835913311,100.0
2241,63.03695820433436,100.0
2242,57.435178018575854,100.0
2243,63.98993808049536,100.0
2244,62.766060371517035,100.0
2245,63.0563080495356,100.0
2246,60.91815015479876,100.0
2247,59.52012383900929,100.0
2248,57.768962848297214,100.0
2249,56.57410990712074,100.0
2250,57.08688080495355,100.0
2251,55.800116099071204,100.0
2252,59.66041021671826,100.0
2253,61.86629256965945,100.0
2254,61.12616099071209,100.0
2255,57.31424148606811,100.0
2256,54.61493808049536,100.0
2257,57.86087461300309,100.0
2258,61.343846749226,100.0
2259,58.46071981424149,100.0
2260,60.971362229102155,100.0
2261,61.00038699690402,100.0
2262,61.880804953560364,100.0
2263,56.97078173374613,100.0
2264,58.47039473684212,100.0
2265,59.766834365325074,100.0
2266,58.397832817337466,100.0
2267,59.08958978328173,100.0
2268,58.39783281733747,100.0
2269,56.274187306501545,100.0
2270,58.44620743034056,100.0
2271,59.17666408668731,100.0
2272,60.947174922600624,100.0
2273,54.97774767801859,100.0
2274,62.432275541795676,100.0
2275,62.25328947368422,100.0
2276,57.62867647058823,100.0
2277,61.07294891640866,100.0
2278,60.56501547987615,100.0
2279,57.9140866873065,100.0
2280,59.4717492260062,100.0
2281,59.19601393188855,100.0
2282,58.41718266253871,100.0
2283,61.87596749226006,100.0
2284,59.108939628482965,100.0
2285,56.975619195046434,100.0
2286,61.000386996904034,100.0
2287,58.92995356037152,100.0
2288,55.267995356037154,100.0
2289,62.558049535603715,100.0
2290,61.40673374613002,100.0
2291,55.00677244582044,100.0
2292,54.32469040247678,100.0
2293,56.43866099071208,100.0
2294,56.11455108359134,100.0
2295,58.818691950464405,100.0
2296,56.96594427244582,100.0
2297,56.84984520123838,100.0
2298,55.98393962848297,100.0
2299,56.94659442724457,100.0
2300,58.5187693498452,100.0
2301,56.699883900928796,100.0
2302,57.648026315789465,100.0
2303,56.49187306501548,100.0
2304,56.73858359133127,100.0
2305,62.62093653250775,100.0
2306,58.392995356037154,100.0
2307,62.654798761609925,100.0
2308,55.26315789473685,100.0
2309,59.89260835913313,100.0
2310,62.51451238390093,100.0
2311,59.529798761609904,100.0
2312,56.980456656346746,100.0
2313,59.45723684210526,100.0
2314,61.817917956656345,100.0
2315,62.47097523219815,100.0
2316,57.74477554179567,100.0
2317,55.77109133126935,100.0
2318,59.45239938080494,100.0
2319,61.31482198142415,100.0
2320,63.03695820433435,100.0
2321,58.38815789473684,100.0
2322,62.61126160990713,100.0
2323,60.337654798761605,100.0
2324,54.29082817337461,100.0
2325,57.754450464396285,100.0
2326,56.675696594427244,100.0
2327,56.622484520123834,100.0
2328,61.17453560371517,100.0
2329,57.899574303405586,100.0
2330,62.746710526315795,100.0
2331,63.92705108359134,100.0
2332,59.607198142414866,100.0
2333,57.74961300309597,100.0
2334,59.43304953560373,100.0
2335,61.37770897832816,100.0
2336,59.974845201238395,100.0
2337,65.44601393188854,100.0
2338,55.567917956656345,100.0
2339,60.56501547987615,100.0
2340,60.908475232198136,100.0
2341,61.67279411764706,100.0
2342,58.34462074303405,100.0
2343,56.18711300309598,100.0
2344,60.67143962848298,100.0
2345,59.67492260061919,100.0
2346,60.56501547987615,100.0
2347,60.10061919504645,100.0
2348,57.63351393188855,100.0
2349,64.95259287925695,100.0
2350,55.403444272445824,100.0
2351,60.62306501547988,100.0
2352,63.49167956656347,100.0
2353,57.053018575851404,100.0
2354,57.64802631578947,100.0
2355,58.98316563467492,100.0
2356,60.76818885448915,100.0
2357,61.06327399380805,100.0
2358,60.337654798761605,100.0
2359,60.11996904024767,100.0
2360,60.33765479876162,100.0
2361,60.913312693498455,100.0
2362,58.08823529411765,100.0
2363,61.140673374613,100.0
2364,53.83610681114551,100.0
2365,62.78541021671826,100.0
2366,59.1766640866873,100.0
2367,61.31965944272446,100.0
2368,52.79121517027864,100.0
2369,60.240905572755416,100.0
2370,62.509674922600624,100.0
2371,58.76547987616099,100.0
2372,59.22020123839009,100.0
2373,59.34597523219815,100.0
2374,61.31482198142414,100.0
2375,61.90015479876162,100.0
2376,62.52902476780188,100.0
2377,56.293537151702786,100.0
2378,58.65421826625387,100.0
2379,61.909829721362215,100.0
2380,52.07043343653251,100.0
2381,59.781346749226,100.0
2382,61.21807275541795,100.0
2383,54.866486068111456,100.0
2384,65.75561145510835,100.0
2385,58.857391640866865,100.0
2386,65.67337461300309,100.0
2387,59.54914860681115,100.0
2388,56.81114551083592,100.0
2389,58.30108359133127,100.0
2390,56.24516253869969,100.0
2391,58.09307275541795,100.0
2392,58.18498452012384,100.0
2393,54.85681114551084,100.0
2394,59.907120743034056,100.0
2395,61.70181888544891,100.0
2396,55.12770897832818,100.0
2397,55.674342105263165,100.0
2398,56.98045665634675,100.0
2399,63.11435758513932,100.0
2400,60.908475232198136,100.0
2401,61.169698142414866,100.0
2402,56.496710526315795,100.0
2403,61.914667182662534,100.0
2404,57.710913312693506,100.0
2405,56.757933436532504,100.0
2406,58.17530959752322,100.0
2407,58.6687306501548,100.0
2408,63.20626934984521,100.0
2409,59.59752321981424,100.0
2410,56.99496904024768,100.0
2411,55.50986842105264,100.0
2412,56.71923374613003,100.0
2413,56.31288699690403,100.0
2414,56.54508513931889,100.0
2415,57.86087461300309,100.0
2416,58.88641640866873,100.0
2417,59.90228328173374,100.0
2418,54.866486068111456,100.0
2419,57.04818111455108,100.0
2420,57.82217492260062,100.0
2421,60.55050309597523,100.0
2422,61.80824303405572,100.0
2423,52.220394736842096,100.0
2424,58.40750773993808,100.0
2425,58.025348297213625,100.0
2426,62.96923374613005,100.0
2427,56.55959752321982,100.0
2428,58.528444272445824,100.0
2429,53.83610681114551,100.0
2430,58.79450464396285,100.0
2431,56.68537151702787,100.0
2432,59.800696594427244,100.0
2433,58.16563467492259,100.0
2434,62.23877708978327,100.0
2435,60.173181114551085,100.0
2436,57.59965170278638,100.0
2437,56.496710526315795,100.0
2438,58.89125386996904,100.0
2439,59.25890092879257,100.0
2440,63.767414860681114,100.0
2441,58.054373065015476,100.0
2442,62.27747678018576,100.0
2443,56.33223684210526,100.0
2444,56.51122291021672,100.0
2445,61.343846749226,100.0
2446,55.529218266253864,100.0
2447,57.43034055727554,100.0
2448,58.40267027863777,100.0
2449,57.198142414860676,100.0
2450,59.76683436532507,100.0
2451,59.15247678018575,100.0
2452,60.30379256965945,100.0
2453,58.26722136222911,100.0
2454,54.09732972136223,100.0
2455,61.16486068111456,100.0
2456,60.323142414860676,100.0
2457,54.01025541795666,100.0
2458,58.949303405572756,100.0
2459,63.29818111455108,100.0
2460,54.15054179566564,100.0
2461,56.032314241486056,100.0
2462,56.05650154798762,100.0
2463,59.83939628482973,100.0
2464,56.15808823529412,100.0
2465,58.920278637770885,100.0
2466,56.23065015479875,100.0
2467,60.298955108359145,100.0
2468,57.29005417956657,100.0
2469,59.921633126934985,100.0
2470,56.23065015479876,100.0
2471,60.82623839009287,100.0
2472,62.37906346749225,100.0
2473,55.78560371517027,100.0
2474,58.09307275541796,100.0
2475,61.02457430340558,100.0
2476,60.22155572755418,100.0
2477,59.05572755417956,100.0
2478,63.172407120743024,100.0
2479,59.86358359133127,100.0
2480,52.525154798761605,100.0
2481,59.38951238390093,100.0
2482,58.663893188854495,100.0
2483,59.86358359133128,100.0
2484,61.256772445820445,100.0
2485,60.352167182662534,100.0
2486,54.70684984520123,100.0
2487,57.754450464396285,100.0
2488,61.140673374613,100.0
2489,57.73510061919505,100.0
2490,62.161377708978335,100.0
2491,61.532507739938076,100.0
2492,58.5236068111455,100.0
2493,56.66118421052631,100.0
2494,60.26993034055728,100.0
2495,58.789667182662534,100.0
2496,60.16834365325078,100.0
2497,60.956849845201226,100.0
2498,54.76006191950464,100.0
2499,59.39434984520124,100.0
2500,56.53057275541795,100.0
2501,60.19736842105264,100.0
2502,60.07643188854489,100.0
2503,57.84636222910216,100.0
2504,58.62519349845201,100.0
2505,54.58107585139319,100.0
2506,62.1468653250774,100.0
2507,57.899574303405586,100.0
2508,58.310758513931894,100.0
2509,55.27767027863777,100.0
2510,59.01219040247677,100.0
2511,58.84287925696596,100.0
2512,57.57546439628483,100.0
2513,57.52225232198141,100.0
2514,58.42202012383901,100.0
2515,55.02128482972136,100.0
2516,59.2250386996904,100.0
2517,59.29276315789474,100.0
2518,58.00116099071208,100.0
2519,58.76064241486068,100.0
2520,57.406153250774,100.0
2521,59.18633900928792,100.0
2522,58.238196594427244,100.0
2523,61.72116873065015,100.0
2524,57.89473684210526,100.0
2525,63.443304953560364,100.0
2526,58.68324303405573,100.0
2527,58.054373065015476,100.0
2528,59.92163312693498,100.0
2529,56.74825851393189,100.0
2530,54.71652476780186,100.0
2531,58.5671439628483,100.0
2532,56.48703560371517,100.0
2533,63.636803405572756,100.0
2534,58.87190402476781,100.0
2535,59.215363777089784,100.0
2536,60.158668730650156,100.0
2537,64.43498452012385,100.0
2538,55.49051857585139,100.0
2539,58.45104489164086,100.0
2540,62.195239938080505,100.0
2541,58.43653250773994,100.0
2542,57.75928792569659,100.0
2543,60.129643962848306,100.0
2544,60.961687306501545,100.0
2545,60.50696594427245,100.0
2546,58.21884674922601,100.0
2547,54.92453560371517,100.0
2548,56.02747678018576,100.0
2549,59.45723684210526,100.0
2550,60.54082817337462,100.0
2551,62.214589783281724,100.0
2552,64.29469814241486,100.0
2553,61.184210526315795,100.0
2554,56.617647058823536,100.0
2555,59.31211300309598,100.0
2556,58.68324303405573,100.0
2557,59.97484520123839,100.0
2558,63.327205882352956,100.0
2559,59.67008513931888,100.0
2560,57.889899380804955,100.0
2561,62.06946594427245,100.0
2562,58.40267027863778,100.0
2563,61.84694272445821,100.0
2564,61.01006191950464,100.0
2565,65.78947368421052,100.0
2566,57.18846749226007,100.0
2567,61.16002321981424,100.0
2568,58.31075851393189,100.0
2569,58.47039473684212,100.0
2570,59.229876160990706,100.0
2571,61.609907120743024,100.0
2572,54.542376160990706,100.0
2573,57.73993808049536,100.0
2574,58.05437306501548,100.0
2575,61.98239164086687,100.0
2576,55.90170278637771,100.0
2577,59.55398606811146,100.0
2578,62.05979102167183,100.0
2579,55.82914086687306,100.0
2580,60.49729102167183,100.0
2581,52.77186532507739,100.0
2582,56.31772445820434,100.0
2583,62.54353715170279,100.0
2584,60.46342879256966,100.0
2585,61.22774767801858,100.0
2586,55.18092105263159,100.0
2587,60.69078947368422,100.0
2588,55.99361455108359,100.0
2589,60.255417956656345,100.0
2590,60.52147832817338,100.0
2591,60.50696594427244,100.0
2592,59.703947368421055,100.0
2593,63.06114551083591,100.0
2594,62.60642414860681,100.0
2595,59.544311145510825,100.0
2596,58.43653250773994,100.0
2597,54.6391253869969,100.0
2598,55.86300309597522,100.0
2599,58.66873065015481,100.0
2600,58.86222910216719,100.0
2601,64.22213622291021,100.0
2602,59.196013931888544,100.0
2603,57.53192724458205,100.0
2604,61.27128482972136,100.0
2605,57.93827399380805,100.0
2606,62.620936532507756,100.0
2607,57.36745356037152,100.0
2608,57.2561919504644,100.0
2609,56.7579334365325,100.0
2610,61.31482198142415,100.0
2611,61.1358359133127,100.0
2612,58.97832817337461,100.0
2613,61.70665634674923,100.0
2614,62.32585139318886,100.0
2615,60.908475232198136,100.0
2616,58.54779411764705,100.0
2617,58.93962848297214,100.0
2618,58.28173374613002,100.0
2619,54.55205108359134,100.0
2620,62.62577399380807,100.0
2621,66.88273993808049,100.0
2622,59.76199690402478,100.0
2623,60.284442724458195,100.0
2624,60.14415634674923,100.0
2625,60.240905572755416,100.0
2626,63.20626934984519,100.0
2627,59.35081269349844,100.0
2628,59.16698916408668,100.0
2629,59.32662538699691,100.0
2630,57.604489164086694,100.0
2631,58.9251160990712,100.0
2632,57.08688080495356,100.0
2633,59.220201238390096,100.0
2634,60.62306501547988,100.0
2635,61.600232198142415,100.0
2636,62.22910216718266,100.0
2637,57.30456656346748,100.0
2638,59.95065789473684,100.0
2639,56.017801857585134,100.0
2640,57.11106811145511,100.0
2641,58.6203560371517,100.0
2642,58.528444272445824,100.0
2643,56.06617647058823,100.0
2644,58.22852167182663,100.0
2645,60.090944272445824,100.0
2646,56.39512383900928,100.0
2647,58.60584365325078,100.0
2648,59.534636222910216,100.0
2649,55.790441176470594,100.0
2650,60.250580495356026,100.0
2651,55.384094427244584,100.0
2652,57.923761609907125,100.0
2653,60.82623839009288,100.0
2654,57.856037151702786,100.0
2655,61.092298761609904,100.0
2656,57.019156346749234,100.0
2657,59.341137770897845,100.0
2658,63.467492260061924,100.0
2659,57.36745356037151,100.0
2660,61.24226006191951,100.0
2661,55.90170278637771,100.0
2662,63.704527863777095,100.0
2663,61.49864551083592,100.0
2664,60.913312693498455,100.0
2665,56.51122291021671,100.0
2666,61.914667182662534,100.0
2667,60.82140092879257,100.0
2668,60.82140092879257,100.0
2669,64.05282507739936,100.0
2670,55.534055727554176,100.0
2671,60.361842105263165,100.0
2672,57.29005417956655,100.0
2673,53.43943498452012,100.0
2674,61.300309597523224,100.0
2675,58.233359133126946,100.0
2676,56.62248452012384,100.0
2677,53.05243808049536,100.0
2678,56.980456656346746,100.0
2679,60.70530185758515,100.0
2680,58.77031733746131,100.0
2681,59.607198142414866,100.0
2682,59.66041021671827,100.0
2683,59.031540247678016,100.0
2684,60.632739938080505,100.0
2685,60.45859133126935,100.0
2686,59.59752321981425,100.0
2687,56.636996904024784,100.0
2688,60.642414860681114,100.0
2689,55.96458978328174,100.0
2690,60.52147832817338,100.0
2691,58.85255417956657,100.0
2692,57.07236842105264,100.0
2693,55.85332817337462,100.0
2694,60.758513931888544,100.0
2695,61.9436919504644,100.0
2696,57.836687306501545,100.0
2697,60.86493808049536,100.0
2698,62.03560371517028,100.0
2699,61.092298761609904,100.0
2700,58.99767801857586,100.0
2701,62.57256191950466,100.0
2702,64.54140866873064,100.0
2703,55.480843653250766,100.0
2704,59.23471362229102,100.0
2705,60.535990712074316,100.0
2706,55.224458204334354,100.0
2707,60.594040247678016,100.0
2708,57.41582817337461,100.0
2709,61.12616099071207,100.0
2710,61.72116873065016,100.0
2711,59.52979876160991,100.0
2712,54.56172600619195,100.0
2713,59.39918730650156,100.0
2714,63.13370743034055,100.0
2715,53.36687306501548,100.0
2716,59.62654798761609,100.0
2717,58.4171826625387,100.0
2718,54.21826625386997,100.0
2719,60.04740712074303,100.0
2720,62.60158668730651,100.0
2721,59.32178792569659,100.0
2722,59.55398606811146,100.0
2723,58.36397058823529,100.0
2724,57.338428792569665,100.0
2725,59.53947368421052,100.0
2726,54.784249226006196,100.0
2727,58.65905572755418,100.0
2728,54.99709752321982,100.0
2729,54.402089783281724,100.0
2730,59.553986068111456,100.0
2731,59.43304953560372,100.0
2732,55.51954334365325,100.0
2733,56.51122291021672,100.0
2734,61.22774767801858,100.0
2735,63.738390092879264,100.0
2736,56.60313467492261,100.0
2737,61.3390092879257,100.0
2738,58.5187693498452,100.0
2739,59.93614551083591,100.0
2740,58.2140092879257,100.0
2741,55.195433436532504,100.0
2742,60.49245356037152,100.0
2743,63.317530959752304,100.0
2744,58.5719814241486,100.0
2745,59.81037151702786,100.0
2746,60.15383126934984,100.0
2747,57.686726006191954,100.0
2748,57.067530959752325,100.0
2749,61.000386996904034,100.0
2750,60.23606811145511,100.0
2751,57.58997678018575,100.0
2752,56.77728328173375,100.0
2753,55.843653250774,100.0
2754,55.80979102167183,100.0
2755,54.7358746130031,100.0
2756,63.03212074303407,100.0
2757,57.99632352941177,100.0
2758,56.308049535603715,100.0
2759,60.976199690402474,100.0
2760,64.57043343653251,100.0
2761,61.092298761609904,100.0
2762,58.712267801857585,100.0
2763,60.511803405572756,100.0
2764,52.48645510835914,100.0
2765,55.00677244582044,100.0
2766,55.16157120743034,100.0
2767,56.49671052631578,100.0
2768,56.41931114551083,100.0
2769,60.88428792569659,100.0
2770,62.73219814241485,100.0
2771,60.608552631578945,100.0
2772,56.26934984520124,100.0
2773,60.76818885448917,100.0
2774,64.37693498452013,100.0
2775,62.4032507739938,100.0
2776,57.885061919504636,100.0
2777,58.83804179566563,100.0
2778,58.77999226006191,100.0
2779,56.28386222910217,100.0
2780,58.50425696594427,100.0
2781,62.0017414860681,100.0
2782,56.999806501547994,100.0
2783,60.27960526315789,100.0
2784,58.55263157894737,100.0
2785,57.28521671826625,100.0
2786,62.0065789473684,100.0
2787,59.950657894736835,100.0
2788,57.498065015479874,100.0
2789,60.129643962848306,100.0
2790,57.3094040247678,100.0
2791,61.6969814241486,100.0
2792,55.43730650154799,100.0
2793,56.74825851393189,100.0
2794,56.13873839009288,100.0
2795,62.05495356037152,100.0
2796,59.22020123839009,100.0
2797,58.659055727554176,100.0
2798,57.55611455108359,100.0
2799,59.83455882352941,100.0
2800,58.15595975232197,100.0
2801,64.71555727554178,100.0
2802,58.170472136222905,100.0
2803,60.49729102167183,100.0
2804,56.651509287925705,100.0
2805,57.449690402476776,100.0
2806,59.73297213622291,100.0
2807,58.610681114551085,100.0
2808,57.33842879256966,100.0
2809,62.19523993808049,100.0
2810,64.0141253869969,100.0
2811,57.01915634674922,100.0
2812,59.20568885448917,100.0
2813,58.29140866873065,100.0
2814,55.17608359133127,100.0
2815,61.295472136222905,100.0
2816,60.269930340557266,100.0
2817,64.44949690402476,100.0
2818,57.749613003095966,100.0
2819,59.89260835913313,100.0
2820,61.909829721362215,100.0
2821,58.378482972136226,100.0
2822,60.947174922600624,100.0
2823,61.68246904024768,100.0
2824,59.06056501547988,100.0
2825,59.578173374613,100.0
2826,55.52921826625387,100.0
2827,60.294117647058826,100.0
2828,58.75096749226006,100.0
2829,61.02457430340558,100.0
2830,58.22368421052631,100.0
2831,60.55050309597523,100.0
2832,57.34326625386997,100.0
2833,58.6687306501548,100.0
2834,61.49864551083592,100.0
2835,63.462654798761605,100.0
2836,59.30243808049536,100.0
2837,60.874613003095966,100.0
2838,60.02805727554179,100.0
2839,59.534636222910216,100.0
2840,56.03715170278639,100.0
2841,59.38467492260063,100.0
2842,58.562306501547994,100.0
2843,62.108165634674926,100.0
2844,60.54566563467491,100.0
2845,57.47871517027864,100.0
2846,60.037732198142415,100.0
2847,60.047407120743024,100.0
2848,62.42260061919504,100.0
2849,62.80476006191951,100.0
2850,60.79721362229102,100.0
2851,60.88912538699691,100.0
2852,57.10623065015479,100.0
2853,58.70259287925696,100.0
2854,56.65634674922601,100.0
2855,57.82217492260062,100.0
2856,59.44756191950464,100.0
2857,56.53541021671827,100.0
2858,56.59345975232197,100.0
2859,61.85178018575851,100.0
2860,57.34810371517028,100.0
2861,58.78482972136223,100.0
2862,60.240905572755416,100.0
2863,59.75715944272446,100.0
2864,58.58165634674921,100.0
2865,56.25967492260062,100.0
2866,60.46826625386998,100.0
2867,61.27128482972136,100.0
2868,58.349458204334354,100.0
2869,59.021865325077385,100.0
2870,57.604489164086694,100.0
2871,56.453173374612994,100.0
2872,56.12906346749225,100.0
2873,60.361842105263165,100.0
2874,59.40886222910217,100.0
2875,56.80147058823529,100.0
2876,64.02863777089783,100.0
2877,59.28792569659443,100.0
2878,58.27689628482972,100.0
2879,56.36609907120743,100.0
2880,59.500773993808046,100.0
2881,57.36261609907121,100.0
2882,62.277476780185744,100.0
2883,63.09984520123838,100.0
2884,60.202205882352935,100.0
2885,59.48142414860681,100.0
2886,56.511222910216716,100.0
2887,58.509094427244584,100.0
2888,55.877515479876166,100.0
2889,65.0203173374613,100.0
2890,55.137383900928796,100.0
2891,60.90363777089783,100.0
2892,56.777283281733745,100.0
2893,57.38680340557274,100.0
2894,56.81114551083592,100.0
2895,57.44001547987615,100.0
2896,58.58165634674923,100.0
2897,56.38061145510835,100.0
2898,59.36532507739938,100.0
2899,56.12906346749225,100.0
2900,58.934791021671835,100.0
2901,65.25251547987617,100.0
2902,58.896091331269346,100.0
2903,59.118614551083596,100.0
2904,57.07236842105264,100.0
2905,59.466911764705884,100.0
2906,61.363196594427244,100.0
2907,55.43730650154799,100.0
2908,58.80417956656346,100.0
2909,60.13931888544893,100.0
2910,59.4233746130031,100.0
2911,55.17124613003096,100.0
2912,56.607972136222905,100.0
2913,57.98181114551083,100.0
2914,59.77167182662539,100.0
2915,56.89338235294118,100.0
2916,59.95549535603715,100.0
2917,52.916989164086694,100.0
2918,57.44485294117648,100.0
2919,53.79256965944273,100.0
2920,63.859326625386984,100.0
2921,61.47445820433436,100.0
2922,53.221749226006196,100.0
2923,57.53192724458205,100.0
2924,63.482004643962846,100.0
2925,63.09984520123841,100.0
2926,59.50561145510835,100.0
2927,62.86764705882353,100.0
2928,61.609907120743024,100.0
2929,61.41640866873065,100.0
2930,56.071013931888544,100.0
2931,58.925116099071204,100.0
2932,57.856037151702786,100.0
2933,60.3860294117647,100.0
2934,59.11861455108359,100.0
2935,58.63003095975233,100.0
2936,65.58146284829722,100.0
2937,54.0924922600619,100.0
2938,55.67917956656347,100.0
2939,53.226586687306494,100.0
2940,57.59481424148607,100.0
2941,57.14976780185758,100.0
2942,62.529024767801864,100.0
2943,57.14493034055727,100.0
2944,55.63564241486068,100.0
2945,60.03773219814241,100.0
2946,58.005998452012385,100.0
2947,57.35777863777089,100.0
2948,58.67356811145512,100.0
2949,54.76489938080495,100.0
2950,64.14473684210526,100.0
2951,59.64589783281734,100.0
2952,60.80205108359132,100.0
2953,58.01083591331269,100.0
2954,57.38680340557274,100.0
2955,58.005998452012385,100.0
2956,58.484907120743024,100.0
2957,60.06191950464397,100.0
2958,56.646671826625386,100.0
2959,55.0406346749226,100.0
2960,65.37828947368422,100.0
2961,58.58649380804953,100.0
2962,57.89957430340558,100.0
2963,57.20297987616098,100.0
2964,59.7765092879257,100.0
2965,56.288699690402474,100.0
2966,59.09442724458205,100.0
2967,52.77186532507739,100.0
2968,54.358552631578945,100.0
2969,60.55050309597523,100.0
2970,57.87054953560372,100.0
2971,59.050890092879264,100.0
2972,55.422794117647065,100.0
2973,59.66041021671827,100.0
2974,60.00386996904025,100.0
2975,58.63970588235295,100.0
2976,60.50696594427245,100.0
2977,61.10197368421051,100.0
2978,58.097910216718276,100.0
2979,60.139318885448915,100.0
2980,60.352167182662534,100.0
2981,60.913312693498455,100.0
2982,54.943885448916404,100.0
2983,58.900928792569665,100.0
2984,57.77863777089783,100.0
2985,55.7469040247678,100.0
2986,55.86784055727554,100.0
2987,58.85739164086687,100.0
2988,58.60100619195046,100.0
2989,57.78831269349845,100.0
2990,59.57333591331269,100.0
2991,64.39144736842107,100.0
2992,54.7890866873065,100.0
2993,57.73026315789474,100.0
2994,57.947948916408656,100.0
2995,56.77244582043343,100.0
2996,60.947174922600624,100.0
2997,60.371517027863774,100.0
2998,59.35081269349844,100.0
2999,60.927825077399376,100.0
3000,55.85332817337462,100.0
3001,62.862809597523224,100.0
3002,58.57681888544892,100.0
3003,56.26451238390092,100.0
3004,53.94253095975233,100.0
3005,57.82701238390092,100.0
3006,59.549148606811144,100.0
3007,55.669504643962846,100.0
3008,57.34810371517028,100.0
3009,52.82991486068111,100.0
3010,59.636222910216716,100.0
3011,58.42685758513932,100.0
3012,60.255417956656345,100.0
3013,59.01219040247678,100.0
3014,60.240905572755416,100.0
3015,61.55185758513932,100.0
3016,62.53386222910217,100.0
3017,63.196594427244584,100.0
3018,57.04818111455108,100.0
3019,54.67782507739938,100.0
3020,58.48974458204334,100.0
3021,55.76625386996904,100.0
3022,58.55263157894737,100.0
3023,56.00812693498452,100.0
3024,57.0046439628483,100.0
3025,59.33146284829721,100.0
3026,63.728715170278626,100.0
3027,61.00522445820434,100.0
3028,57.39647832817337,100.0
3029,63.907701238390096,100.0
3030,59.9264705882353,100.0
3031,58.025348297213625,100.0
3032,59.16215170278639,100.0
3033,54.40208978328174,100.0
3034,58.663893188854495,100.0
3035,56.21613777089784,100.0
3036,57.70123839009289,100.0
3037,60.82623839009288,100.0
3038,61.44543343653251,100.0
3039,62.14202786377708,100.0
3040,63.37558049535604,100.0
3041,61.140673374613,100.0
3042,57.48355263157894,100.0
3043,63.03212074303404,100.0
3044,60.284442724458195,100.0
3045,61.26644736842107,100.0
3046,61.19388544891641,100.0
3047,58.61068111455108,100.0
3048,62.475812693498455,100.0
3049,59.181501547987615,100.0
3050,55.06965944272446,100.0
3051,53.22174922600619,100.0
3052,59.399187306501545,100.0
3053,53.09113777089784,100.0
3054,60.52631578947369,100.0
3055,62.722523219814256,100.0
3056,60.31346749226006,100.0
3057,61.07294891640868,100.0
3058,62.36455108359132,100.0
3059,53.381385448916404,100.0
3060,58.42202012383901,100.0
3061,58.484907120743024,100.0
3062,57.449690402476776,100.0
3063,60.76335139318885,100.0
3064,57.764125386996916,100.0
3065,58.402670278637764,100.0
3066,60.68111455108359,100.0
3067,56.04198916408669,100.0
3068,55.83397832817337,100.0
3069,61.66795665634675,100.0
3070,56.95143188854488,100.0
3071,58.92995356037152,100.0
3072,60.55050309597523,100.0
3073,62.461300309597526,100.0
3074,59.22987616099071,100.0
3075,59.81037151702787,100.0
3076,58.286571207430335,100.0
3077,56.09520123839008,100.0
3078,56.08552631578948,100.0
3079,57.483552631578945,100.0
3080,60.15866873065015,100.0
3081,59.795859133126925,100.0
3082,63.14821981424149,100.0
3083,56.34674922600619,100.0
3084,59.83455882352942,100.0
3085,56.11455108359133,100.0
3086,56.622484520123834,100.0
3087,58.06888544891641,100.0
3088,54.17472910216719,100.0
3089,57.827012383900936,100.0
3090,57.38680340557275,100.0
3091,52.52031733746131,100.0
3092,59.0750773993808,100.0
3093,58.813854489164086,100.0
3094,58.47039473684211,100.0
3095,55.722716718266255,100.0
3096,63.39493034055728,100.0
3097,55.137383900928796,100.0
3098,60.98103715170278,100.0
3099,56.31288699690403,100.0
3100,59.09442724458205,100.0
3101,60.371517027863774,100.0
3102,59.80069659442725,100.0
3103,55.737229102167184,100.0
3104,63.59326625386996,100.0
3105,63.18691950464396,100.0
3106,58.14144736842105,100.0
3107,56.7530959752322,100.0
3108,58.794504643962846,100.0
3109,57.70123839009288,100.0
3110,56.88854489164087,100.0
3111,60.11513157894737,100.0
3112,52.9750386996904,100.0
3113,63.82062693498451,100.0
3114,54.581075851393194,100.0
3115,60.99071207430341,100.0
3116,59.118614551083596,100.0
3117,53.53134674922601,100.0
3118,63.72387770897832,100.0
3119,55.02128482972136,100.0
3120,61.45994582043343,100.0
3121,61.609907120743024,100.0
3122,59.46207430340558,100.0
3123,56.73858359133128,100.0
3124,54.29082817337461,100.0
3125,63.433630030959755,100.0
3126,60.7875386996904,100.0
3127,57.6625386996904,100.0
3128,61.73084365325077,100.0
3129,54.82294891640867,100.0
3130,54.663312693498455,100.0
3131,56.93691950464397,100.0
3132,58.605843653250766,100.0
3133,61.68730650154798,100.0
3134,61.484133126934985,100.0
3135,63.28850619195047,100.0
3136,62.79024767801858,100.0
3137,58.576818885448915,100.0
3138,57.77863777089783,100.0
3139,61.900154798761605,100.0
3140,55.954914860681114,100.0
3141,58.28173374613004,100.0
3142,60.976199690402474,100.0
3143,59.036377708978335,100.0
3144,59.38951238390093,100.0
3145,60.574690402476776,100.0
3146,66.29256965944273,100.0
3147,55.321207430340564,100.0
3148,60.5359907120743,100.0
3149,55.06965944272446,100.0
3150,55.882352941176464,100.0
3151,57.75928792569658,100.0
3152,59.87809597523219,100.0
3153,54.92453560371517,100.0
3154,60.284442724458195,100.0
3155,58.16079721362229,100.0
3156,62.175890092879264,100.0
3157,56.71439628482972,100.0
3158,59.89744582043343,100.0
3159,57.74477554179566,100.0
3160,57.83668730650155,100.0
3161,59.834558823529406,100.0
3162,56.70955882352941,100.0
3163,58.73161764705883,100.0
3164,59.61687306501546,100.0
3165,58.29624613003096,100.0
3166,61.900154798761605,100.0
3167,58.57681888544891,100.0
3168,60.705301857585134,100.0
3169,57.860874613003105,100.0
3170,58.44620743034055,100.0
3171,55.75657894736842,100.0
3172,54.05379256965944,100.0
3173,55.514705882352935,100.0
3174,60.49729102167184,100.0
3175,61.42124613003096,100.0
3176,59.49593653250774,100.0
3177,54.66815015479876,100.0
3178,58.19465944272446,100.0
3179,58.17047213622291,100.0
3180,61.01006191950464,100.0
3181,60.511803405572756,100.0
3182,63.404605263157904,100.0
3183,66.79082817337462,100.0
3184,59.52012383900929,100.0
3185,59.3266253869969,100.0
3186,58.01083591331269,100.0
3187,62.30650154798762,100.0
3188,58.001160990712066,100.0
3189,61.64376934984521,100.0
3190,62.253289473684205,100.0
3191,58.60100619195047,100.0
3192,62.770897832817326,100.0
3193,60.255417956656345,100.0
3194,60.265092879256976,100.0
3195,61.59055727554179,100.0
3196,57.75928792569659,100.0
3197,56.60797213622292,100.0
3198,60.80205108359132,100.0
3199,57.94311145510836,100.0
3200,59.13796439628483,100.0
3201,55.86300309597523,100.0
3202,61.09713622291021,100.0
3203,56.43866099071207,100.0
3204,56.36126160990712,100.0
3205,56.85468266253871,100.0
3206,62.58223684210527,100.0
3207,57.348103715170275,100.0
3208,60.908475232198136,100.0
3209,59.12345201238391,100.0
3210,61.97271671826626,100.0
3211,61.450270897832816,100.0
3212,60.48761609907121,100.0
3213,60.0280572755418,100.0
3214,61.31482198142415,100.0
3215,60.60371517027864,100.0
3216,57.691563467492266,100.0
3217,59.974845201238395,100.0
3218,63.24013157894738,100.0
3219,53.270123839009294,100.0
3220,59.462074303405586,100.0
3221,58.98800309597524,100.0
3222,60.31830495356038,100.0
3223,60.26025541795666,100.0
3224,60.87461300309598,100.0
3225,58.83804179566564,100.0
3226,56.11455108359134,100.0
3227,57.67705108359132,100.0
3228,54.93421052631579,100.0
3229,59.63622291021672,100.0
3230,52.849264705882355,100.0
3231,59.35565015479876,100.0
3232,60.20220588235295,100.0
3233,59.234713622291025,100.0
3234,58.165634674922615,100.0
3235,56.84017027863777,100.0
3236,61.55185758513932,100.0
3237,58.50909442724458,100.0
3238,56.17260061919505,100.0
3239,58.83804179566563,100.0
3240,57.80282507739938,100.0
3241,57.101393188854495,100.0
3242,57.07236842105263,100.0
3243,57.74961300309597,100.0
3244,56.564434984520126,100.0
3245,57.69640092879257,100.0
3246,59.96033281733746,100.0
3247,58.243034055727556,100.0
3248,59.78618421052631,100.0
3249,60.24574303405572,100.0
3250,53.952205882352935,100.0
3251,57.609326625387,100.0
3252,57.97213622291022,100.0
3253,61.36803405572756,100.0
3254,61.160023219814256,100.0
3255,59.118614551083596,100.0
3256,57.739938080495364,100.0
3257,60.83107585139319,100.0
3258,57.89957430340557,100.0
3259,56.835332817337466,100.0
3260,59.79585913312694,100.0
3261,56.25483746130031,100.0
3262,61.56153250773994,100.0
3263,63.42879256965945,100.0
3264,60.85042569659442,100.0
3265,62.79024767801858,100.0
3266,56.99013157894736,100.0
3267,60.110294117647044,100.0
3268,59.76683436532509,100.0
3269,61.387383900928796,100.0
3270,60.80205108359134,100.0
3271,57.89957430340558,100.0
3272,59.21052631578948,100.0
3273,56.182275541795654,100.0
3274,58.74129256965944,100.0
3275,61.96304179566564,100.0
3276,55.93556501547988,100.0
3277,59.215363777089784,100.0
3278,58.31559597523219,100.0
3279,54.90518575851393,100.0
3280,56.883707430340564,100.0
3281,58.60584365325078,100.0
3282,60.43440402476781,100.0
3283,59.147639318885446,100.0
3284,60.371517027863774,100.0
3285,58.32043343653251,100.0
3286,63.486842105263165,100.0
3287,57.17879256965944,100.0
3288,55.954914860681114,100.0
3289,61.4889705882353,100.0
3290,56.14841331269349,100.0
3291,57.94311145510836,100.0
3292,57.381965944272444,100.0
3293,61.522832817337466,100.0
3294,59.20085139318885,100.0
3295,60.110294117647065,100.0
3296,64.05766253869969,100.0
3297,61.49864551083591,100.0
3298,54.997097523219814,100.0
3299,57.07236842105263,100.0
3300,59.81037151702787,100.0
3301,57.31907894736842,100.0
3302,58.252708978328165,100.0
3303,60.89396284829722,100.0
3304,60.88428792569658,100.0
3305,59.13796439628483,100.0
3306,56.946594427244584,100.0
3307,62.11784055727555,100.0
3308,59.38951238390093,100.0
3309,57.70123839009289,100.0
3310,58.0640479876161,100.0
3311,60.65692724458205,100.0
3312,60.02805727554181,100.0
3313,63.3513931888545,100.0
3314,60.642414860681114,100.0
3315,59.534636222910216,100.0
3316,57.836687306501545,100.0
3317,61.94852941176472,100.0
3318,61.6486068111455,100.0
3319,59.960332817337466,100.0
3320,57.71575077399381,100.0
3321,55.7469040247678,100.0
3322,61.68246904024767,100.0
3323,57.36745356037152,100.0
3324,57.96729876160991,100.0
3325,58.82352941176471,100.0
3326,56.19195046439629,100.0
3327,62.39841331269349,100.0
3328,59.70878482972136,100.0
3329,59.31695046439627,100.0
3330,59.25406346749226,100.0
3331,59.220201238390096,100.0
3332,63.20626934984519,100.0
3333,63.26431888544891,100.0
3334,58.765479876160995,100.0
3335,58.13177244582043,100.0
3336,60.46826625386998,100.0
3337,59.079914860681114,100.0
3338,63.42395510835913,100.0
3339,58.3204334365325,100.0
3340,65.09771671826626,100.0
3341,58.12693498452013,100.0
3342,56.35158668730651,100.0
3343,54.005417956656345,100.0
3344,60.08610681114551,100.0
3345,60.3328173374613,100.0
3346,62.229102167182674,100.0
3347,59.549148606811144,100.0
3348,59.97000773993807,100.0
3349,62.480650154798774,100.0
3350,55.669504643962846,100.0
3351,57.870549535603715,100.0
3352,58.58649380804954,100.0
3353,60.3328173374613,100.0
3354,61.9436919504644,100.0
3355,57.40615325077399,100.0
3356,61.90982972136223,100.0
3357,57.02399380804953,100.0
3358,61.55669504643962,100.0
3359,58.37848297213622,100.0
3360,59.53463622291021,100.0
3361,62.00174148606811,100.0
3362,63.67550309597523,100.0
3363,59.1766640866873,100.0
3364,60.7875386996904,100.0
3365,56.69504643962847,100.0
3366,57.31424148606811,100.0
3367,59.079914860681114,100.0
3368,67.56965944272444,100.0
3369,61.04876160990712,100.0
3370,58.89609133126935,100.0
3371,57.135255417956664,100.0
3372,64.4640092879257,100.0
3373,57.61416408668732,100.0
3374,52.28811919504645,100.0
3375,60.2312306501548,100.0
3376,61.07778637770898,100.0
3377,57.64802631578947,100.0
3378,59.1766640866873,100.0
3379,58.359133126934985,100.0
3380,56.98529411764706,100.0
3381,59.283088235294116,100.0
3382,65.09771671826627,100.0
3383,60.47794117647059,100.0
3384,62.08881578947368,100.0
3385,59.63622291021672,100.0
3386,58.23335913312693,100.0
3387,60.23606811145511,100.0
3388,56.99980650154799,100.0
3389,60.090944272445824,100.0
3390,56.45801083591331,100.0
3391,57.36745356037151,100.0
3392,59.679760061919495,100.0
3393,59.99903250773994,100.0
3394,62.58223684210526,100.0
3395,63.970588235294116,100.0
3396,59.21052631578948,100.0
3397,55.79044117647059,100.0
3398,59.0702399380805,100.0
3399,61.82275541795666,100.0
3400,66.50541795665636,100.0
3401,63.17724458204334,100.0
3402,56.82565789473684,100.0
3403,58.039860681114554,100.0
3404,55.68401702786378,100.0
3405,54.99709752321981,100.0
3406,58.53328173374613,100.0
3407,57.178792569659436,100.0
3408,59.31211300309597,100.0
3409,58.963815789473685,100.0
3410,57.64802631578947,100.0
3411,61.48413312693498,100.0
3412,63.89802631578947,100.0
3413,61.32933436532509,100.0
3414,59.08475232198142,100.0
3415,63.370743034055735,100.0
3416,64.13989938080496,100.0
3417,57.42066563467493,100.0
3418,57.24167956656348,100.0
3419,60.37151702786379,100.0
3420,59.22987616099073,100.0
3421,60.090944272445824,100.0
3422,59.45723684210526,100.0
3423,60.86977554179566,100.0
3424,58.83804179566563,100.0
3425,56.898219814241486,100.0
3426,61.40189628482972,100.0
3427,55.37441950464397,100.0
3428,61.10681114551083,100.0
3429,60.095781733746136,100.0
3430,61.10681114551083,100.0
3431,63.767414860681114,100.0
3432,57.19814241486068,100.0
3433,56.25483746130031,100.0
3434,58.78482972136223,100.0
3435,53.125,100.0
3436,59.568498452012385,100.0
3437,63.690015479876166,100.0
3438,55.46633126934984,100.0
3439,57.34326625386997,100.0
3440,56.588622291021665,100.0
3441,55.82914086687306,100.0
3442,59.77650928792569,100.0
3443,53.54585913312693,100.0
3444,55.04547213622291,100.0
3445,59.433049535603715,100.0
3446,57.23200464396285,100.0
3447,57.46420278637771,100.0
3448,62.03076625386998,100.0
3449,57.05785603715171,100.0
3450,62.13719040247676,100.0
3451,55.800116099071204,100.0
3452,61.06811145510836,100.0
3453,61.01489938080495,100.0
3454,61.44543343653251,100.0
3455,55.335719814241486,100.0
3456,59.5249613003096,100.0
3457,59.28308823529412,100.0
3458,59.90712074303406,100.0
3459,55.37441950464396,100.0
3460,56.211300309597526,100.0
3461,55.55824303405573,100.0
3462,55.654992260061924,100.0
3463,58.61551857585139,100.0
3464,56.42414860681114,100.0
3465,61.69698142414862,100.0
3466,58.17530959752321,100.0
3467,62.229102167182674,100.0
3468,58.91060371517028,100.0
3469,62.36455108359134,100.0
3470,58.74613003095975,100.0
3471,61.532507739938076,100.0
3472,62.490325077399376,100.0
3473,57.64318885448917,100.0
3474,58.30108359133128,100.0
3475,60.932662538699695,100.0
3476,59.85874613003096,100.0
3477,57.89473684210526,100.0
3478,53.589396284829725,100.0
3479,63.01760835913313,100.0
3480,56.72407120743034,100.0
3481,55.940402476780186,100.0
3482,62.27747678018577,100.0
3483,60.21188080495355,100.0
3484,62.229102167182674,100.0
3485,58.14628482972137,100.0
3486,57.004643962848306,100.0
3487,60.44407894736843,100.0
3488,59.370162538699695,100.0
3489,56.18227554179566,100.0
3490,57.02399380804953,100.0
3491,57.64802631578948,100.0
3492,56.93691950464397,100.0
3493,56.86435758513932,100.0
3494,59.06540247678019,100.0
3495,61.242260061919495,100.0
3496,57.923761609907125,100.0
3497,60.61822755417957,100.0
3498,56.58862229102167,100.0
3499,60.003869969040245,100.0
3500,57.706075851393194,100.0
3501,63.95123839009288,100.0
3502,62.42260061919505,100.0
3503,59.30243808049535,100.0
3504,58.039860681114554,100.0
3505,60.110294117647065,100.0
3506,58.35913312693498,100.0
3507,58.74129256965944,100.0
3508,57.13041795665635,100.0
3509,60.086106811145505,100.0
3510,60.95201238390093,100.0
3511,55.45665634674922,100.0
3512,60.676277089783284,100.0
3513,61.609907120743024,100.0
3514,59.8829334365325,100.0
3515,63.438467492260045,100.0
3516,54.11667956656348,100.0
3517,61.41640866873065,100.0
3518,57.1594427244582,100.0
3519,58.11726006191952,100.0
3520,54.61010061919505,100.0
3521,60.82623839009288,100.0
3522,61.02457430340558,100.0
3523,56.72407120743033,100.0
3524,58.10274767801858,100.0
3525,58.54295665634675,100.0
3526,59.06056501547988,100.0
3527,58.28173374613003,100.0
3528,60.40054179566564,100.0
3529,55.69852941176471,100.0
3530,61.21807275541794,100.0
3531,58.088235294117645,100.0
3532,59.85390866873065,100.0
3533,62.074303405572756,100.0
3534,57.38680340557274,100.0
3535,56.98529411764706,100.0
3536,58.74129256965944,100.0
3537,58.978328173374614,100.0
3538,61.861455108359145,100.0
3539,59.15731424148607,100.0
3540,64.08668730650153,100.0
3541,61.585719814241486,100.0
3542,59.51044891640868,100.0
3543,57.46420278637771,100.0
3544,61.98239164086687,100.0
3545,53.574883900928796,100.0
3546,54.31017801857585,100.0
3547,60.11029411764705,100.0
3548,57.754450464396285,100.0
3549,59.6265479876161,100.0
3550,59.07991486068112,100.0
3551,56.7047213622291,100.0
3552,64.66718266253868,100.0
3553,61.03424922600619,100.0
3554,64.39144736842104,100.0
3555,60.50212848297215,100.0
3556,59.249226006191954,100.0
3557,55.872678018575854,100.0
3558,57.70607585139319,100.0
3559,59.62654798761611,100.0
3560,63.24013157894738,100.0
3561,60.153831269349844,100.0
3562,59.529798761609904,100.0
3563,64.82681888544892,100.0
3564,58.38332043343653,100.0
3565,53.11048761609907,100.0
3566,63.76257739938081,100.0
3567,61.25677244582043,100.0
3568,55.62596749226007,100.0
3569,59.77650928792569,100.0
3570,63.11919504643962,100.0
3571,59.47658668730651,100.0
3572,61.38254643962849,100.0
3573,58.557469040247675,100.0
3574,63.65131578947368,100.0
3575,61.05359907120743,100.0
3576,63.35139318885449,100.0
3577,56.980456656346746,100.0
3578,59.05572755417956,100.0
3579,62.27747678018576,100.0
3580,62.843459752321984,100.0
3581,59.81037151702787,100.0
3582,58.122097523219814,100.0
3583,62.180727554179555,100.0
3584,56.158088235294116,100.0
3585,54.33436532507739,100.0
3586,60.18285603715171,100.0
3587,58.01567337461301,100.0
3588,56.38544891640867,100.0
3589,57.50773993808049,100.0
3590,60.44407894736842,100.0
3591,59.20568885448916,100.0
3592,60.400541795665625,100.0
3593,61.81308049535604,100.0
3594,61.609907120743024,100.0
3595,62.63544891640866,100.0
3596,60.531153250774,100.0
3597,52.97020123839008,100.0
3598,55.804953560371516,100.0
3599,62.857972136222905,100.0
3600,59.62171052631579,100.0
3601,59.39918730650155,100.0
3602,60.1828560371517,100.0
3603,56.898219814241486,100.0
3604,57.401315789473685,100.0
3605,59.14763931888544,100.0
3606,59.80553405572755,100.0
3607,58.60584365325078,100.0
3608,58.51393188854489,100.0
3609,58.847716718266255,100.0
3610,59.77167182662539,100.0
3611,58.6155185758514,100.0
3612,54.6875,100.0
3613,60.95684984520124,100.0
3614,59.42337461300309,100.0
3615,60.61339009287925,100.0
3616,55.17608359133127,100.0
3617,60.80205108359134,100.0
3618,60.49245356037152,100.0
3619,56.08552631578948,100.0
3620,58.42685758513932,100.0
3621,56.65150928792569,100.0
3622,56.43382352941176,100.0
3623,56.74825851393188,100.0
3624,62.25812693498454,100.0
3625,53.94253095975233,100.0
3626,61.37770897832817,100.0
3627,62.58223684210526,100.0
3628,57.87054953560372,100.0
3629,61.93885448916409,100.0
3630,58.99767801857587,100.0
3631,57.7060758513932,100.0
3632,54.86164860681115,100.0
3633,63.99477554179566,100.0
3634,58.29140866873066,100.0
3635,52.67995356037152,100.0
3636,55.86300309597523,100.0
3637,60.913312693498455,100.0
3638,58.38815789473684,100.0
3639,57.68188854489164,100.0
3640,60.62306501547988,100.0
3641,60.40054179566564,100.0
3642,58.17047213622291,100.0
3643,57.63351393188855,100.0
3644,57.09171826625387,100.0
3645,58.52844427244582,100.0
3646,60.84075077399381,100.0
3647,58.38815789473684,100.0
3648,57.80766253869969,100.0
3649,58.87674148606811,100.0
3650,58.80417956656347,100.0
3651,57.14976780185759,100.0
3652,55.10352167182663,100.0
3653,61.04392414860681,100.0
3654,57.70607585139319,100.0
3655,59.481424148606806,100.0
3656,58.712267801857585,100.0
3657,56.38061145510836,100.0
3658,55.87267801857585,100.0
3659,61.16002321981423,100.0
3660,60.08126934984519,100.0
3661,58.330108359133135,100.0
3662,57.12074303405573,100.0
3663,60.289280185758514,100.0
3664,56.72407120743035,100.0
3665,61.78889318885449,100.0
3666,59.81520897832817,100.0
3667,59.54431114551083,100.0
3668,56.516060371517035,100.0
3669,58.339783281733745,100.0
3670,57.49322755417956,100.0
3671,59.42337461300309,100.0
3672,63.70452786377708,100.0
3673,58.2672213622291,100.0
3674,64.46400928792569,100.0
3675,58.18498452012383,100.0
3676,55.064821981424146,100.0
3677,60.14899380804954,100.0
3678,59.2250386996904,100.0
3679,59.78134674922601,100.0
3680,62.253289473684205,100.0
3681,59.26857585139319,100.0
3682,64.59462074303407,100.0
3683,54.37790247678018,100.0
3684,61.77921826625386,100.0
3685,59.90712074303406,100.0
3686,56.22097523219814,100.0
3687,59.40886222910216,100.0
3688,58.630030959752325,100.0
3689,58.64938080495356,100.0
3690,58.141447368421055,100.0
3691,57.08688080495356,100.0
3692,57.12558049535604,100.0
3693,51.42221362229102,100.0
3694,61.4889705882353,100.0
3695,58.58649380804953,100.0
3696,59.11377708978327,100.0
3697,60.932662538699695,100.0
3698,61.36803405572756,100.0
3699,55.12287151702787,100.0
3700,59.38467492260061,100.0
3701,60.869775541795676,100.0
3702,57.98181114551084,100.0
3703,57.522252321981426,100.0
3704,61.29547213622292,100.0
3705,61.53734520123838,100.0
3706,57.29005417956657,100.0
3707,62.60158668730651,100.0
3708,56.724071207430335,100.0
3709,59.19117647058823,100.0
3710,54.87132352941177,100.0
3711,51.939821981424146,100.0
3712,63.056308049535616,100.0
3713,59.40402476780186,100.0
3714,64.67202012383902,100.0
3715,58.80901702786378,100.0
3716,57.96729876160991,100.0
3717,58.6687306501548,100.0
3718,57.09171826625387,100.0
3719,54.60042569659442,100.0
3720,61.32449690402477,100.0
3721,59.15731424148607,100.0
3722,61.179373065015476,100.0
3723,60.54082817337461,100.0
3724,60.7875386996904,100.0
3725,58.16079721362229,100.0
3726,60.531153250774,100.0
3727,60.86977554179566,100.0
3728,60.144156346749234,100.0
3729,53.197561919504636,100.0
3730,58.17530959752322,100.0
3731,59.96033281733746,100.0
3732,60.642414860681114,100.0
3733,54.18924148606811,100.0
3734,61.89047987616101,100.0
3735,59.781346749225996,100.0
3736,58.726780185758514,100.0
3737,59.534636222910216,100.0
3738,60.04740712074303,100.0
3739,62.05011609907121,100.0
3740,61.71149380804953,100.0
3741,59.66041021671827,100.0
3742,60.627902476780186,100.0
3743,59.91195820433436,100.0
3744,54.29082817337462,100.0
3745,56.84017027863777,100.0
3746,64.30921052631578,100.0
3747,59.50077399380805,100.0
3748,59.49109907120743,100.0
3749,53.49748452012384,100.0
3750,64.20762383900929,100.0
3751,57.71575077399381,100.0
3752,60.48761609907121,100.0
3753,56.31772445820433,100.0
3754,59.96033281733747,100.0
3755,60.2360681114551,100.0
3756,59.95065789473683,100.0
3757,57.77863777089783,100.0
3758,61.51799535603715,100.0
3759,59.83939628482972,100.0
3760,61.566369969040245,100.0
3761,61.94369195046441,100.0
3762,60.56017801857586,100.0
3763,57.086880804953566,100.0
3764,58.455882352941174,100.0
3765,58.90576625386997,100.0
3766,58.8186919504644,100.0
3767,61.493808049535616,100.0
3768,57.80766253869968,100.0
3769,59.133126934984524,100.0
3770,60.44407894736842,100.0
3771,59.11377708978328,100.0
3772,57.07720588235295,100.0
3773,59.85874613003096,100.0
3774,53.17821207430341,100.0
3775,57.232004643962846,100.0
3776,62.18556501547988,100.0
3777,61.39222136222911,100.0
3778,60.79721362229103,100.0
3779,58.95897832817337,100.0
3780,62.46613777089783,100.0
3781,58.586493808049525,100.0
3782,59.96517027863777,100.0
3783,61.11648606811144,100.0
3784,61.04876160990712,100.0
3785,53.86513157894737,100.0
3786,51.064241486068106,100.0
3787,58.36397058823529,100.0
3788,59.29760061919505,100.0
3789,64.1737616099071,100.0
3790,61.56153250773994,100.0
3791,59.05572755417956,100.0
3792,57.062693498452006,100.0
3793,58.862229102167184,100.0
3794,57.35294117647059,100.0
3795,63.78676470588234,100.0
3796,56.419311145510825,100.0
3797,60.845588235294116,100.0
3798,61.04392414860683,100.0
3799,53.72484520123839,100.0
3800,59.82972136222911,100.0
3801,60.12964396284829,100.0
3802,54.760061919504636,100.0
3803,57.80766253869969,100.0
3804,63.98026315789474,100.0
3805,59.515286377708975,100.0
3806,57.65286377708978,100.0
3807,55.04547213622291,100.0
3808,58.30592105263158,100.0
3809,58.610681114551085,100.0
3810,59.10410216718266,100.0
3811,60.83107585139319,100.0
3812,59.98935758513932,100.0
3813,60.231230650154814,100.0
3814,55.17124613003096,100.0
3815,64.53173374613004,100.0
3816,55.61145510835913,100.0
3817,57.76896284829723,100.0
3818,61.06327399380805,100.0
3819,57.82701238390093,100.0
3820,57.28521671826625,100.0
3821,54.997097523219814,100.0
3822,55.43246904024768,100.0
3823,56.20162538699691,100.0
3824,56.390286377708975,100.0
3825,58.36880804953561,100.0
3826,61.00522445820434,100.0
3827,57.9140866873065,100.0
3828,58.876741486068106,100.0
3829,57.94311145510836,100.0
3830,60.758513931888544,100.0
3831,59.62171052631579,100.0
3832,58.40267027863777,100.0
3833,59.955495356037154,100.0
3834,55.80979102167183,100.0
3835,59.81520897832817,100.0
3836,54.377902476780186,100.0
3837,57.24167956656347,100.0
3838,58.528444272445824,100.0
3839,58.184984520123834,100.0
3840,58.51393188854489,100.0
3841,55.330882352941174,100.0
3842,53.033088235294116,100.0
3843,61.53734520123838,100.0
3844,60.06191950464397,100.0
3845,54.8374613003096,100.0
3846,60.371517027863774,100.0
3847,63.27399380804953,100.0
3848,59.73780959752322,100.0
3849,62.828947368421055,100.0
3850,58.184984520123834,100.0
3851,62.14202786377708,100.0
3852,59.34597523219814,100.0
3853,58.23335913312693,100.0
3854,60.81172600619195,100.0
3855,58.509094427244584,100.0
3856,58.610681114551085,100.0
3857,57.21749226006192,100.0
3858,54.93421052631578,100.0
3859,58.68324303405572,100.0
3860,62.233939628482965,100.0
3861,56.6031346749226,100.0
3862,58.36397058823529,100.0
3863,58.14144736842104,100.0
3864,60.10061919504645,100.0
3865,63.83513931888544,100.0
3866,56.129063467492266,100.0
3867,56.75793343653251,100.0
3868,54.75522445820433,100.0
3869,63.394930340557266,100.0
3870,63.87867647058823,100.0
3871,59.25890092879257,100.0
3872,60.91331269349844,100.0
3873,53.09597523219814,100.0
3874,60.608552631578945,100.0
3875,57.71575077399381,100.0
3876,57.570626934984524,100.0
3877,57.92376160990712,100.0
3878,54.53753869969041,100.0
3879,58.90092879256967,100.0
3880,54.32469040247678,100.0
3881,54.880998452012385,100.0
3882,60.63757739938081,100.0
3883,56.63699690402476,100.0
3884,59.55398606811145,100.0
3885,58.726780185758514,100.0
3886,58.310758513931894,100.0
3887,61.67279411764706,100.0
3888,55.88719040247677,100.0
3889,60.90847523219815,100.0
3890,55.87267801857585,100.0
3891,58.77031733746131,100.0
3892,59.25890092879257,100.0
3893,58.325270897832816,100.0
3894,60.9375,100.0
3895,61.522832817337466,100.0
3896,62.79024767801858,100.0
3897,63.86900154798762,100.0
3898,62.577399380804934,100.0
3899,59.6797600619195,100.0
3900,61.85178018575851,100.0
3901,60.11513157894737,100.0
3902,61.75986842105262,100.0
3903,57.67705108359133,100.0
3904,58.85255417956655,100.0
3905,58.73645510835913,100.0
3906,55.62596749226007,100.0
3907,58.29140866873064,100.0
3908,59.21536377708979,100.0
3909,56.6031346749226,100.0
3910,56.64183436532508,100.0
3911,53.49748452012383,100.0
3912,59.345975232198136,100.0
3913,57.1159055727554,100.0
3914,65.55727554179568,100.0
3915,58.44136996904026,100.0
3916,59.43788699690402,100.0
3917,52.83958978328173,100.0
3918,58.4171826625387,100.0
3919,59.94582043343653,100.0
3920,64.34307275541795,100.0
3921,65.74109907120742,100.0
3922,57.5609520123839,100.0
3923,60.197368421052644,100.0
3924,57.80282507739938,100.0
3925,60.94717492260061,100.0
3926,62.68382352941177,100.0
3927,62.54837461300309,100.0
3928,55.27283281733745,100.0
3929,60.511803405572756,100.0
3930,62.074303405572756,100.0
3931,58.31559597523219,100.0
3932,58.57198142414861,100.0
3933,60.240905572755416,100.0
3934,62.38390092879257,100.0
3935,60.01354489164087,100.0
3936,57.164280185758514,100.0
3937,58.107585139318886,100.0
3938,55.47116873065016,100.0
3939,59.36532507739938,100.0
3940,62.11784055727554,100.0
3941,58.97349071207431,100.0
3942,57.043343653250766,100.0
3943,56.91273219814242,100.0
3944,60.86493808049536,100.0
3945,60.7391640866873,100.0
3946,57.15460526315789,100.0
3947,59.10893962848298,100.0
3948,58.34462074303405,100.0
3949,56.337074303405565,100.0
3950,60.608552631578945,100.0
3951,56.9030572755418,100.0
3952,54.33920278637771,100.0
3953,59.5249613003096,100.0
3954,56.06617647058823,100.0
3955,56.38544891640868,100.0
3956,60.323142414860676,100.0
3957,58.25754643962848,100.0
3958,55.66466718266254,100.0
3959,60.63273993808049,100.0
3960,57.836687306501545,100.0
3961,56.64183436532508,100.0
3962,60.67143962848298,100.0
3963,61.600232198142415,100.0
3964,55.674342105263165,100.0
3965,63.12403250773994,100.0
3966,63.56424148606813,100.0
3967,57.10139318885449,100.0
3968,57.27070433436533,100.0
3969,55.25832043343653,100.0
3970,59.553986068111456,100.0
3971,57.5609520123839,100.0
3972,61.222910216718276,100.0
3973,57.75445046439628,100.0
3974,59.781346749226,100.0
3975,59.34113777089784,100.0
3976,59.59268575851393,100.0
3977,56.64667182662538,100.0
3978,59.58784829721362,100.0
3979,55.21962074303406,100.0
3980,57.26586687306502,100.0
3981,56.046826625387,100.0
3982,61.57604489164087,100.0
3983,58.69291795665635,100.0
3984,60.076431888544896,100.0
3985,63.53521671826626,100.0
3986,59.14280185758514,100.0
3987,53.72968266253869,100.0
3988,56.18711300309598,100.0
3989,59.341137770897824,100.0
3990,58.025348297213625,100.0
3991,53.51199690402478,100.0
3992,60.69078947368422,100.0
3993,63.433630030959755,100.0
3994,60.98103715170278,100.0
3995,55.238970588235304,100.0
3996,56.24516253869969,100.0
3997,60.37635448916409,100.0
3998,57.59965170278639,100.0
3999,59.13796439628482,100.0
4000,57.03850619195047,100.0
4001,60.274767801857585,100.0
4002,58.91544117647059,100.0
4003,60.84075077399381,100.0
4004,57.22716718266254,100.0
4005,61.87596749226006,100.0
4006,62.3500386996904,100.0
4007,61.3970588235294,100.0
4008,59.58784829721362,100.0
4009,57.130417956656345,100.0
4010,59.22987616099073,100.0
4011,60.77786377708978,100.0
4012,57.619001547987615,100.0
4013,64.24148606811146,100.0
4014,56.254837461300305,100.0
4015,55.61145510835913,100.0
4016,60.89396284829722,100.0
4017,61.547020123839005,100.0
4018,62.64512383900929,100.0
4019,57.933436532507734,100.0
4020,64.84133126934984,100.0
4021,54.69717492260062,100.0
4022,53.8796439628483,100.0
4023,56.051664086687296,100.0
4024,60.71013931888545,100.0
4025,62.258126934984524,100.0
4026,61.300309597523224,100.0
4027,59.81037151702786,100.0
4028,59.737809597523224,100.0
4029,60.381191950464384,100.0
4030,56.37093653250774,100.0
4031,54.73103715170278,100.0
4032,61.09713622291021,100.0
4033,56.74342105263158,100.0
4034,59.34597523219814,100.0
4035,61.71149380804952,100.0
4036,57.164280185758514,100.0
4037,62.51451238390093,100.0
4038,55.15673374613003,100.0
4039,54.068304953560364,100.0
4040,50.52244582043344,100.0
4041,58.823529411764696,100.0
4042,60.99071207430341,100.0
4043,56.206462848297214,100.0
4044,63.23045665634674,100.0
4045,57.17395510835914,100.0
4046,53.73935758513932,100.0
4047,59.61687306501547,100.0
4048,60.869775541795676,100.0
4049,60.95684984520124,100.0
4050,59.771671826625386,100.0
4051,57.778637770897824,100.0
4052,60.26025541795666,100.0
4053,58.736455108359145,100.0
4054,58.620356037151694,100.0
4055,59.442724458204324,100.0
4056,58.388157894736835,100.0
4057,56.73374613003096,100.0
4058,58.98800309597522,100.0
4059,58.315595975232206,100.0
4060,63.22078173374613,100.0
4061,61.04392414860681,100.0
4062,58.19949690402478,100.0
4063,53.44427244582044,100.0
4064,59.31695046439628,100.0
4065,56.94175696594427,100.0
4066,56.869195046439636,100.0
4067,61.566369969040245,100.0
4068,57.85603715170278,100.0
4069,55.369582043343655,100.0
4070,61.00522445820434,100.0
4071,67.07623839009287,100.0
4072,56.17260061919506,100.0
4073,62.00174148606811,100.0
4074,58.98316563467491,100.0
4075,62.36455108359134,100.0
4076,54.57140092879257,100.0
4077,61.179373065015476,100.0
4078,59.466911764705884,100.0
4079,60.10061919504644,100.0
4080,57.686726006191954,100.0
4081,57.589976780185744,100.0
4082,56.17260061919505,100.0
4083,61.542182662538714,100.0
4084,61.450270897832816,100.0
4085,58.320433436532504,100.0
4086,59.78618421052632,100.0
4087,55.02128482972136,100.0
4088,62.11300309597523,100.0
4089,58.45588235294117,100.0
4090,57.44969040247678,100.0
4091,57.89957430340557,100.0
4092,53.71033281733746,100.0
4093,54.13119195046439,100.0
4094,58.944465944272444,100.0
4095,60.06191950464395,100.0
4096,57.62383900928793,100.0
4097,56.34191176470589,100.0
4098,56.370936532507756,100.0
4099,57.88506191950464,100.0
4100,59.26373839009288,100.0
4101,58.83320433436533,100.0
4102,57.78347523219814,100.0
4103,55.72755417956656,100.0
4104,58.02534829721362,100.0
4105,61.537345201238395,100.0
4106,59.71362229102167,100.0
4107,55.98877708978328,100.0
4108,62.649961300309585,100.0
4109,60.61339009287925,100.0
4110,58.63486842105262,100.0
4111,61.43575851393189,100.0
4112,61.67279411764707,100.0
4113,61.74051857585138,100.0
4114,61.31965944272446,100.0
4115,64.08668730650155,100.0
4116,62.88699690402477,100.0
4117,58.58649380804953,100.0
4118,52.28811919504644,100.0
4119,62.746710526315795,100.0
4120,56.31772445820433,100.0
4121,61.49864551083592,100.0
4122,59.96517027863777,100.0
4123,58.204334365325074,100.0
4124,56.675696594427244,100.0
4125,52.684791021671835,100.0
4126,57.0094814241486,100.0
4127,57.749613003095966,100.0
4128,59.51044891640867,100.0
4129,62.24845201238389,100.0
4130,61.66795665634675,100.0
4131,66.8827399380805,100.0
4132,58.625193498452006,100.0
4133,58.15595975232198,100.0
4134,58.5671439628483,100.0
4135,59.59268575851393,100.0
4136,59.25406346749226,100.0
4137,61.01973684210526,100.0
4138,58.90092879256966,100.0
4139,55.07449690402477,100.0
4140,63.467492260061924,100.0
4141,59.60236068111455,100.0
4142,60.9858746130031,100.0
4143,58.48974458204334,100.0
4144,52.79121517027864,100.0
4145,59.418537151702786,100.0
4146,62.20007739938081,100.0
4147,56.91756965944272,100.0
